Branches	Mean	Site162	Site163	Site164	Site165	Site166	Site168	Site169	Site170	Site172	Site173	Site174	Site176	Site177	Site181	Site182	Site183	Site184	Site186	Site187	Site188	Site189	Site190	Site191	Site192	Site193	Site194	Site195	Site196	Site197	Site198	Site199	Site200	Site201	Site202	Site204	Site205	Site237	Site238	Site239	Site241	Site242	Site243	Site244	Site245	Site246	Site247	Site248	Site249	Site250	Site251	Site252	Site253	Site254	Site255	Site256	Site257	Site258	Site260	Site261	Site265	Site266	Site267	Site272	Site273	Site274	Site275	Site276	Site277	Site278	Site279	Site280	Site288	Site289	Site291	Site292	Site293	Site295	Site296	Site297	Site301	Site302	Site303	Site304	Site305	Site306	Site307	Site308	Site310	Site311	Site312	Site313	Site314	Site315	Site316	Site317	Site318	Site319	Site320	Site323	Site324	Site325	Site326	Site327	Site328	Site329	Site330	Site331	Site332	Site333	Site334	Site335	Site336	Site337	Site338	Site339	Site340	Site341	Site342	Site344	Site345	Site346	Site347	Site348	Site349	Site350	Site351	Site352	Site353	Site354
0	0.452633	1.1994	0.424313	0.00150899	0.177494	0.690055	0.0307239	1.05997	0.978526	0.650501	0.938947	0.0322257	0.715837	0.00761236	1.26668	0.227507	0.470173	0.617323	1.13788	1.45071	0.160559	0.0284377	0.117486	0.0176476	0.00460817	0.00211209	0.680467	0.623583	0.02377	1.09669	0.00676902	0.0219008	1.00011	0.347922	0.30024	0.0068004	0.0114053	0.00222251	0.0354627	1.22922	0.756542	0.906198	1.28027	1.53339	0.993171	0.0210804	1.10452	0.899364	0.20785	0.352329	0.0483402	0.427498	0.742592	0.347196	0.0116955	0.0149186	1.74712	0.00307137	0.00466761	0.305007	0.634136	0.0123335	0.0342559	0.125735	0.0117831	0.00140384	1.29176	0.000613621	0.285344	0.683644	1.15157	0.818456	0.0827733	0.895793	0.0042614	0.699615	0.0391847	0.0669049	1.0449	0.0837058	0.00800394	0.0022415	0.0761943	0.282702	0.822094	0.00271707	0.945584	0.218519	0.0241471	1.10924	0.496006	0.0499056	0.181939	0.861126	0.0038193	0.0891459	1.01352	0.0354639	0.027571	0.92308	0.582055	0.0216028	1.06171	0.95761	0.770225	1.12477	0.00422762	1.28703	0.969077	0.0116521	1.12657	0.173866	0.525013	0.0181642	0.904666	0.669082	0.0625638	0.00288508	0.140225	0.553071	0.0153784	0.502585	1.66529	0.00237034	0.00243044	0.0218093	0.155653	0.0212379	0.00497975	0.0398583
1	0.0293916	0.406254	0.000212076	5.53171e-06	0.14775	0.00340412	4.17383e-05	0.00586506	0.00925099	0.00186753	0.000368446	0.00027905	0.221434	0.0224242	0.307956	0.00452876	0.00197946	0.0160815	0.000159759	0.00312819	0.00040688	0.000123152	0.000244244	8.49923e-05	2.21015e-05	9.48529e-06	0.00206667	0.00296282	0.000229927	3.52242e-06	3.16762e-05	0.000211427	0.00263307	0.427144	0.31256	2.08253e-05	5.29678e-05	0.00606612	0.000151122	0.000939181	0.000143731	0.002823	0.00458433	0.000482837	0.00106014	5.50411e-05	0.000457358	0.00253402	0.000295912	0.000540104	0.000204283	0.00155698	0.000509381	0.000212861	0.000171332	0.00024808	0.00380714	1.34442e-05	2.24016e-05	0.844107	0.00200604	5.18151e-05	0.000306994	0.000559037	5.45803e-05	6.07735e-06	0.393796	2.57029e-06	0.00101698	0.000298342	0.00021756	0.00665654	0.000437381	0.000510945	1.88549e-05	0.000888618	5.78066e-05	9.24325e-05	0.000210049	0.000390731	3.81654e-05	9.03626e-06	6.92737e-05	0.000217884	0.000141347	1.03306e-05	0.000344244	0.0007324	5.56992e-05	0.00367142	0.00356062	5.66153e-05	0.001053	0.266336	1.81503e-05	0.000196446	0.00497379	0.000175359	4.66311e-05	0.00505487	0.00361058	2.18064e-05	0.00042471	0.00011214	0.000426144	0.407497	1.73444e-05	0.0120581	2.15172e-05	1.01654e-05	0.00548076	0.000149074	0.000158985	1.98704e-05	0.000470984	0.0607181	0.000260873	3.16653e-06	0.000423309	0.00166609	5.36988e-05	0.000690848	0.00253167	1.09329e-05	1.09577e-05	0.000161974	0.000336457	2.42094e-05	2.26733e-05	0.000133831
2	0.0246251	0.0060378	0.00173128	3.67823e-06	0.00472057	0.000639906	2.05288e-05	0.00130769	0.0025717	0.000383189	9.47635e-05	0.00254086	0.779007	0.00124573	0.0128754	0.000855922	0.000572909	0.0362662	5.82078e-05	0.000610329	0.000121656	5.61088e-05	7.91953e-05	4.36635e-05	1.18638e-05	5.6163e-06	0.00044948	0.000546315	1.28102e-05	2.0097e-06	1.74777e-05	6.51253e-06	0.978565	0.353648	0.00144818	1.30553e-05	2.80632e-05	0.000956638	6.96506e-05	0.000183675	3.57477e-05	0.000669177	0.00101352	0.000101317	0.0002933	2.40075e-05	0.000112804	0.000614609	2.78595e-05	0.000108218	9.59803e-05	0.000334752	8.68903e-05	3.49152e-05	7.23253e-06	2.1144e-05	0.000713004	8.10606e-06	1.20095e-05	0.202912	0.000577805	2.57187e-05	3.20633e-05	6.03866e-05	2.87766e-05	3.91317e-06	0.610008	1.71739e-06	0.000310947	5.18152e-05	2.29519e-05	0.00178018	0.00016995	0.000103951	1.11411e-05	0.000119439	2.47423e-05	2.54275e-05	6.35792e-05	6.74052e-05	1.98748e-05	5.92341e-06	3.45328e-05	2.5616e-05	3.63852e-05	6.0264e-06	8.37403e-05	0.000112481	2.7349e-05	0.000743427	0.0010287	2.48358e-05	0.000353616	0.00208076	9.91026e-06	6.60683e-05	0.00114572	8.48266e-05	2.6009e-05	0.0013101	0.000733885	1.08796e-05	9.46312e-05	3.8135e-05	7.87303e-05	0.00282506	1.09123e-05	0.0179825	5.3368e-06	5.43883e-06	0.00138647	1.36929e-05	2.16446e-05	1.01654e-05	9.47042e-05	0.217525	0.000103908	2.09801e-06	0.000164934	0.000370639	2.71936e-05	0.000128446	0.000536458	6.51114e-06	6.39573e-06	2.09413e-05	0.000123969	1.2383e-05	1.28585e-05	7.13382e-05
3	0.0509955	0.00858328	0.000104101	1.57613e-05	0.0052226	0.00244429	8.71731e-05	0.00507084	0.00898843	0.00152305	0.000392349	1.02239	0.565181	0.00129661	0.0205489	0.00334623	0.00227589	0.967479	0.000247099	0.00248059	0.000495141	0.000230863	0.000323544	0.000182078	4.95922e-05	2.37709e-05	0.0017495	0.00224479	5.31099e-05	8.6059e-06	7.33935e-05	2.67492e-05	0.0240667	0.930723	0.00157114	5.58356e-05	0.000117681	0.00099319	0.000289055	0.00075574	0.000148643	0.00262989	0.0037537	0.000421495	0.00115649	0.000100065	0.000460853	0.00241729	0.000115992	0.000446502	0.000397608	0.00132284	0.00035331	0.000145669	3.02738e-05	8.77444e-05	0.00277238	3.43938e-05	5.01935e-05	0.805415	0.00237003	0.000107204	0.00012876	0.000246928	0.000120632	1.66701e-05	0.461622	7.35008e-06	0.00125503	0.000219438	9.72975e-05	0.00626323	0.000688458	0.000425774	4.71754e-05	0.000487999	0.000104486	0.000105188	0.000265403	0.000280279	8.30795e-05	2.53544e-05	0.00014748	0.000108553	0.000151649	2.54939e-05	0.000348228	0.000454275	0.00011546	0.00292111	0.00380438	0.000104745	0.00138583	0.00258964	4.15607e-05	0.000270673	0.00444196	0.0003513	0.000111332	0.00510221	0.00279866	4.65803e-05	0.000395239	0.000160031	0.000331811	0.00355315	4.66242e-05	1.03036	2.25639e-05	2.30504e-05	0.00539404	5.77282e-05	9.07897e-05	4.29341e-05	0.000388289	0.827655	0.000424419	9.01436e-06	0.000684426	0.00147012	0.000113874	0.000524188	0.00207637	2.75087e-05	2.70392e-05	8.77874e-05	0.000512193	5.26355e-05	5.42313e-05	0.000303369
4	0.0718063	0.640325	0.000356605	3.16334e-05	0.85176	0.00737714	0.000186141	0.0142352	0.0233811	0.00437888	0.00101661	0.00309385	0.584573	0.978435	0.752558	0.010067	0.00573674	0.02739	0.000571295	0.00727705	0.00121755	0.000502448	0.000775138	0.000384796	0.00010374	4.87075e-05	0.00491832	0.00674153	0.000316809	1.77751e-05	0.000152589	0.000255068	0.0221528	0.335671	0.693627	0.000113572	0.000247049	0.995277	0.000627411	0.00219634	0.000388819	0.00715991	0.0106565	0.00118696	0.00294492	0.00021964	0.00121519	0.00647253	0.000487864	0.00127942	0.000858163	0.00371354	0.00108657	0.000454202	0.00022131	0.000392736	0.00831476	7.02733e-05	0.000105028	0.197418	0.005962	0.0002283	0.000516909	0.00096565	0.000253524	3.36047e-05	0.651134	1.47225e-05	0.0030898	0.000665699	0.00038455	0.0165138	0.00156796	0.00121482	9.67716e-05	0.0016948	0.000230418	0.000265037	0.000648762	0.000855902	0.000174987	5.10593e-05	0.000315275	0.000399137	0.000390641	5.23948e-05	0.000921234	0.00147836	0.000246493	0.00850961	0.0096583	0.000229629	0.00330356	0.853413	8.65703e-05	0.00064057	0.0122725	0.000753157	0.000232041	0.0134621	0.00811281	9.92206e-05	0.00108212	0.000376392	0.00098095	0.612131	9.46197e-05	0.0189551	5.87338e-05	4.82041e-05	0.0143756	0.000245958	0.000308805	9.07102e-05	0.0011112	1.09902	0.000957228	1.81083e-05	0.00155549	0.00406592	0.000241218	0.00155571	0.00591133	5.6248e-05	5.55717e-05	0.000307433	0.00118276	0.00011137	0.00011214	0.00063876
5	0.614966	1.77315	0.595251	0.00268062	0.241817	1.64465	0.0381627	1.95311	1.34449	1.0083	0.384743	0.0527306	1.5211	0.0332372	1.3007	1.87643	0.645761	0.866958	0.214907	1.80246	0.191564	0.0441828	0.14124	0.0301333	0.00795877	0.00375431	1.24377	1.4863	0.995692	0.0100545	0.0117644	0.992002	0.225812	0.729911	1.18968	0.0115845	0.0196804	0.00990198	0.0561122	0.788814	0.670078	1.00862	1.53006	0.829437	0.451571	0.0279044	0.5056	1.16853	1.03666	0.969817	0.0753407	0.909197	0.348432	0.928635	1.01277	1.02346	2.164	0.00552528	0.00805896	0.351752	0.864216	0.0196186	1.10077	1.04898	0.0202693	0.00255991	1.70264	0.00113266	0.37567	1.15775	1.34956	1.073	0.131123	0.761625	0.00761028	1.36195	0.0469873	0.0737781	0.210252	1.20451	0.0136572	0.00418866	0.0971214	1.28897	0.466721	0.0044858	0.575787	1.5695	0.032699	1.77133	0.668218	0.0583928	0.266479	1.95308	0.00660505	0.108265	1.32695	0.0595444	0.0379529	1.25015	1.09411	0.0256378	0.558221	0.11899	0.990542	0.984264	0.00777193	1.49724	0.0478099	0.0133733	1.47398	1.30932	0.539104	0.0213582	0.845114	0.834075	0.0905104	0.00365124	0.193159	0.89525	0.0231673	1.26894	1.48775	0.00419263	0.00430278	1.07261	0.198787	0.0254845	0.00875555	0.0662929
6	0.170831	1.40294	0.00082023	0.978856	0.913223	0.11562	0.00169617	0.0437052	0.00362468	0.00206262	0.924467	0.00368496	0.0450302	0.000842276	0.848463	1.07307	0.899374	0.857704	0.000814352	0.0793951	0.00553462	0.00274717	0.0242834	0.00213371	0.000576273	0.000273398	0.0284962	0.959465	0.00912857	9.83483e-05	0.0250804	0.000189548	0.0104413	0.0164418	0.00418842	0.000651978	0.00137736	0.000274288	1.03306	0.00224312	0.00547718	0.167489	1.24046	1.06819	0.882911	0.00119002	0.00562336	0.00646196	0.0256453	0.0335295	0.00608069	0.0157126	0.68115	0.00172517	0.000187088	0.00018431	0.0465248	0.000396534	0.000583376	0.00584826	0.0378413	0.000518618	0.000647291	0.00293824	0.972648	0.000189815	0.0886235	8.36261e-05	0.0102148	0.00402326	0.218401	0.0355428	0.00859895	0.00031632	0.000545176	1.06416	0.0127078	0.000404397	0.0131992	0.292976	0.0242973	0.0209161	0.114332	0.00289841	0.00238983	0.000293612	0.03518	0.00657122	0.00361429	0.0331299	0.0476175	0.00378073	0.0176509	0.0462136	0.000481106	0.00181378	0.0567515	0.00415322	0.0020035	0.0434406	0.00705976	0.00102616	0.00535256	0.00187538	0.959794	0.00204857	0.000540012	0.384545	0.000258822	0.000542406	0.0373671	0.015317	0.00297915	0.000547667	0.0105357	0.11144	0.0432656	0.00362412	0.0115863	0.0377624	0.0170917	0.960406	0.0363871	0.000314249	0.000311678	0.000875841	0.0558114	0.000152913	0.000627872	0.0387229
7	0.16236	0.187921	0.000744597	0.579811	0.105329	0.112436	0.00154133	0.0401214	0.00326289	0.00186714	0.163729	0.00335199	0.0411699	0.000762853	0.191109	0.461733	0.352541	0.443378	0.000737617	0.0760978	0.00504889	0.00249747	1.04046	0.0019355	0.000522545	0.000247424	0.0262178	0.152131	0.994675	8.88091e-05	0.978071	0.000171387	1.05817	0.0150618	0.00381345	0.000588526	0.00124827	0.00024823	0.92906	0.00203319	0.00499346	0.913492	0.125141	0.0566881	0.14512	0.00108165	0.0051115	0.00585837	0.991359	1.01501	0.00553443	0.0144284	0.737866	0.00156442	0.000168996	0.000166619	0.0425731	0.000358655	0.000528998	0.00532603	0.0348224	0.000472418	0.000587101	0.00266665	0.0328954	0.000171597	0.0855686	7.55387e-05	0.00930869	0.00364893	0.934596	0.0327096	0.00783825	0.000285591	0.00049331	0.0291055	0.0125871	0.000365942	0.0129466	0.982483	0.978522	0.02045	0.11111	0.0026462	0.00216371	0.000265749	0.0348436	0.00599259	0.0034851	0.0303701	0.0440684	0.0036432	0.0161753	0.0424448	0.000436088	0.00163917	0.0534122	0.00377139	0.00181716	0.0397073	0.00640368	0.00093473	0.00487267	0.0016985	0.0763238	0.00185734	0.000487747	1.07395	0.000234112	0.000493734	0.0342538	0.0150148	0.00271109	0.000494964	0.0101844	1.01742	0.0428518	0.00330792	0.0114821	0.0361518	0.0169729	0.993326	0.0349527	0.000284524	0.000282117	0.000793695	0.0541251	0.000138237	0.000568521	0.0381572
8	0.175816	0.173044	0.00180146	0.746275	0.0603338	0.716636	0.00218272	0.0615822	0.00607224	0.0024698	0.409914	0.00441092	0.0638652	0.000943337	0.122941	0.58863	0.587301	0.736304	0.00191871	0.802662	0.00780045	0.00341177	0.0240938	0.00246136	0.000656203	0.000303231	0.0532976	0.151321	0.00886042	0.0001057	0.02295	0.000209077	0.0107838	0.026063	0.00564702	0.000751209	0.00157624	0.00030425	0.133152	0.00413413	0.00812276	0.124844	0.114653	0.0495566	0.0781965	0.00195878	0.00928221	0.00968046	0.0148958	0.0305832	0.0112531	0.0255463	0.305665	0.00285882	0.000202055	0.000200375	0.069142	0.000437852	0.000664515	0.00942942	0.0621055	0.0018936	0.000749577	0.0050693	0.0292995	0.000205811	0.715511	8.97933e-05	0.0155798	0.00515592	0.182701	0.0513682	0.0108964	0.000358006	0.000617421	0.0267607	0.522271	0.000495512	0.980317	0.928377	0.0228305	1.01086	0.796799	0.0258984	0.00380738	0.000339632	0.791098	0.00898478	0.0908136	0.0452796	0.0638197	0.0946267	0.0247691	0.0641923	0.000544979	0.00339633	0.316967	0.00487339	0.00243414	0.0604345	0.0118232	0.00242488	0.00839134	0.0021716	0.0413339	0.0040076	0.000590324	0.751335	0.000290749	0.00153188	0.0510468	0.611755	0.00429019	0.00120099	0.47368	0.351916	0.805781	0.00700774	0.736206	0.411845	0.861422	0.248759	1.04449	0.000347763	0.000347113	0.000993519	0.773217	0.000177685	0.000704809	0.737072
9	1e-06	1.21671e-12	2.65684e-14	9.22364e-14	2.4833e-13	8.84638e-13	5.42593e-14	1.17497e-12	1.09195e-13	6.69375e-14	9.66055e-15	1.16623e-13	1.21915e-12	2.78963e-14	6.95594e-13	1.277e-12	8.08828e-13	1.27473e-11	2.67215e-14	1.8831e-12	1.69887e-13	8.73744e-14	9.94363e-14	6.91459e-14	1.88833e-14	9.07308e-15	7.49938e-13	1.0848e-12	1.29294e-14	3.28702e-15	2.80089e-14	6.32267e-15	1.06709e-13	4.58285e-13	1.3098e-13	2.1173e-14	4.46885e-14	9.10207e-15	1.0879e-13	7.18131e-14	1.6737e-13	6.12704e-13	7.41826e-13	8.85255e-13	4.07968e-13	9.81398e-14	1.7227e-13	2.04019e-13	3.28491e-14	1.67638e-13	1.83415e-13	2.23172e-12	2.0494e-13	5.51184e-14	6.25538e-15	6.19702e-15	1.24813e-12	1.31103e-14	1.91112e-14	1.78358e-13	1.03254e-12	1.62472e-14	2.11462e-14	9.25333e-14	4.58036e-14	6.38091e-15	2.00976e-12	2.81234e-15	2.97723e-13	1.2702e-13	1.67611e-12	9.77736e-13	2.56838e-13	1.04213e-14	1.79777e-14	1.32777e-13	6.33886e-14	1.33425e-14	1.00092e-13	1.09149e-13	3.15764e-14	9.65624e-15	2.54254e-12	8.42033e-14	7.56998e-14	9.72811e-15	1.35476e-13	2.01581e-13	7.71222e-14	9.4393e-13	1.25222e-12	4.74965e-14	5.1491e-13	1.23803e-12	1.58449e-14	5.61669e-14	3.72446e-13	1.33096e-13	6.43031e-14	1.17966e-12	2.21559e-13	3.21006e-14	1.67115e-13	6.06658e-14	3.87535e-14	6.55426e-14	1.77253e-14	1.21063e-12	8.6037e-15	1.71209e-14	1.0601e-12	8.55298e-14	9.39159e-14	1.74787e-14	2.71977e-14	9.53632e-13	1.61656e-13	1.0968e-13	1.65428e-13	2.20372e-13	4.33852e-14	1.95883e-13	6.42708e-13	1.05281e-14	1.03139e-14	2.88023e-14	2.29083e-13	5.14484e-15	2.0659e-14	2.79131e-13
10	1e-06	1.21589e-12	2.65676e-14	9.22185e-14	2.48271e-13	8.83234e-13	5.42521e-14	1.17398e-12	1.09195e-13	6.69348e-14	9.66052e-15	1.16601e-13	1.21846e-12	2.78955e-14	6.91274e-13	1.20927e-12	8.0754e-13	6.73389e-13	2.67212e-14	1.48269e-12	1.69841e-13	8.73598e-14	9.94144e-14	6.91405e-14	1.88819e-14	9.07287e-15	7.49206e-13	1.0781e-12	1.29293e-14	3.28701e-15	2.7969e-14	6.3226e-15	1.06706e-13	4.57981e-13	1.30951e-13	2.11728e-14	4.46859e-14	9.10186e-15	1.08779e-13	7.18101e-14	1.67332e-13	6.1239e-13	7.41425e-13	8.5113e-13	4.07683e-13	9.53283e-14	1.72248e-13	2.04006e-13	3.28487e-14	1.67617e-13	1.83388e-13	4.47906e-13	2.04465e-13	5.51157e-14	6.25536e-15	6.19699e-15	1.24647e-12	1.31101e-14	1.91098e-14	1.78331e-13	1.03145e-12	1.62464e-14	2.11445e-14	9.2527e-14	4.57986e-14	6.38087e-15	1.93029e-12	2.81233e-15	2.97638e-13	1.2701e-13	1.67172e-12	9.72041e-13	2.56746e-13	1.04212e-14	1.79772e-14	1.32771e-13	6.3385e-14	1.33422e-14	1.00085e-13	1.09136e-13	3.15742e-14	9.6562e-15	2.53568e-12	8.42004e-14	7.56976e-14	9.72786e-15	1.3545e-13	2.01506e-13	7.00053e-14	9.43277e-13	1.24886e-12	4.74525e-14	5.14534e-13	1.23447e-12	1.5844e-14	5.61663e-14	3.63979e-13	1.33081e-13	6.42983e-14	1.179e-12	2.21545e-13	3.20978e-14	1.67088e-13	6.06628e-14	3.56674e-14	6.55401e-14	1.77252e-14	1.20917e-12	8.60357e-15	1.712e-14	1.05936e-12	8.55272e-14	9.38957e-14	1.74786e-14	2.71795e-14	9.38502e-13	1.59663e-13	1.09661e-13	1.65411e-13	2.18057e-13	4.33456e-14	1.95856e-13	6.42394e-13	1.05278e-14	1.03136e-14	2.88009e-14	2.28964e-13	5.14482e-15	2.06583e-14	2.71879e-13
11	1e-06	1.21589e-12	2.65676e-14	9.22185e-14	2.48271e-13	8.83234e-13	5.42521e-14	1.17398e-12	1.09195e-13	6.69348e-14	9.66052e-15	1.16601e-13	1.21846e-12	2.78955e-14	6.91274e-13	1.20927e-12	8.0754e-13	6.73389e-13	2.67212e-14	1.48269e-12	1.69841e-13	8.73598e-14	9.94144e-14	6.91405e-14	1.88819e-14	9.07287e-15	7.49206e-13	1.0781e-12	1.29293e-14	3.28701e-15	2.7969e-14	6.3226e-15	1.06706e-13	4.57981e-13	1.30951e-13	2.11728e-14	4.46859e-14	9.10186e-15	1.08779e-13	7.18101e-14	1.67332e-13	6.1239e-13	7.41425e-13	8.5113e-13	4.07683e-13	9.53283e-14	1.72248e-13	2.04006e-13	3.28487e-14	1.67617e-13	1.83388e-13	4.47906e-13	2.04465e-13	5.51157e-14	6.25536e-15	6.19699e-15	1.24647e-12	1.31101e-14	1.91098e-14	1.78331e-13	1.03145e-12	1.62464e-14	2.11445e-14	9.2527e-14	4.57986e-14	6.38087e-15	1.93029e-12	2.81233e-15	2.97638e-13	1.2701e-13	1.67172e-12	9.72041e-13	2.56746e-13	1.04212e-14	1.79772e-14	1.32771e-13	6.3385e-14	1.33422e-14	1.00085e-13	1.09136e-13	3.15742e-14	9.6562e-15	2.53568e-12	8.42004e-14	7.56976e-14	9.72786e-15	1.3545e-13	2.01506e-13	7.00053e-14	9.43277e-13	1.24886e-12	4.74525e-14	5.14534e-13	1.23447e-12	1.5844e-14	5.61663e-14	3.63979e-13	1.33081e-13	6.42983e-14	1.179e-12	2.21545e-13	3.20978e-14	1.67088e-13	6.06628e-14	3.56674e-14	6.55401e-14	1.77252e-14	1.20917e-12	8.60357e-15	1.712e-14	1.05936e-12	8.55272e-14	9.38957e-14	1.74786e-14	2.71795e-14	9.38502e-13	1.59663e-13	1.09661e-13	1.65411e-13	2.18057e-13	4.33456e-14	1.95856e-13	6.42394e-13	1.05278e-14	1.03136e-14	2.88009e-14	2.28964e-13	5.14482e-15	2.06583e-14	2.71879e-13
12	1e-06	1.21671e-12	2.65685e-14	9.22365e-14	2.4833e-13	8.84639e-13	5.42594e-14	1.17497e-12	1.09195e-13	6.69375e-14	9.66055e-15	1.16623e-13	1.21915e-12	2.78963e-14	6.95594e-13	1.27701e-12	8.08828e-13	1.27473e-11	2.67215e-14	1.8831e-12	1.69887e-13	8.73744e-14	9.94363e-14	6.91459e-14	1.88833e-14	9.07308e-15	7.49939e-13	1.0848e-12	1.29294e-14	3.28702e-15	2.80089e-14	6.32267e-15	1.06709e-13	4.58286e-13	1.3098e-13	2.1173e-14	4.46886e-14	9.10207e-15	1.0879e-13	7.18131e-14	1.6737e-13	6.12705e-13	7.41826e-13	8.85255e-13	4.07968e-13	9.81399e-14	1.7227e-13	2.04019e-13	3.28491e-14	1.67638e-13	1.83415e-13	2.23172e-12	2.0494e-13	5.51185e-14	6.25538e-15	6.19702e-15	1.24813e-12	1.31103e-14	1.91112e-14	1.78358e-13	1.03254e-12	1.62472e-14	2.11462e-14	9.25333e-14	4.58036e-14	6.38091e-15	2.00977e-12	2.81234e-15	2.97723e-13	1.2702e-13	1.67611e-12	9.77737e-13	2.56838e-13	1.04213e-14	1.79777e-14	1.32777e-13	6.33886e-14	1.33425e-14	1.00092e-13	1.09149e-13	3.15764e-14	9.65624e-15	2.54254e-12	8.42033e-14	7.56998e-14	9.72811e-15	1.35477e-13	2.01581e-13	7.71222e-14	9.4393e-13	1.25222e-12	4.74965e-14	5.1491e-13	1.23804e-12	1.58449e-14	5.61669e-14	3.72446e-13	1.33096e-13	6.43032e-14	1.17966e-12	2.21559e-13	3.21006e-14	1.67115e-13	6.06658e-14	3.87535e-14	6.55426e-14	1.77253e-14	1.21063e-12	8.6037e-15	1.71209e-14	1.0601e-12	8.55298e-14	9.39159e-14	1.74787e-14	2.71977e-14	9.53633e-13	1.61656e-13	1.0968e-13	1.65428e-13	2.20372e-13	4.33852e-14	1.95883e-13	6.42708e-13	1.05281e-14	1.03139e-14	2.88023e-14	2.29083e-13	5.14484e-15	2.0659e-14	2.79131e-13
13	1e-06	1.0801e-09	4.25827e-12	3.72674e-11	1.13341e-10	3.03608e-09	1.73902e-11	1.08231e-09	7.90696e-12	1.22259e-11	5.28529e-13	4.60166e-11	8.9845e-10	4.55562e-12	6.68427e-09	8.70791e-08	1.85402e-09	4.17964e-05	2.66439e-12	2.65706e-07	8.11214e-11	3.20032e-11	9.62984e-11	1.77439e-11	4.34331e-12	1.1596e-12	8.41921e-10	7.42228e-09	7.33272e-13	1.24578e-13	1.67741e-10	5.45442e-13	1.6706e-11	3.6813e-10	5.56985e-11	1.62704e-12	9.54396e-12	1.16532e-12	3.51754e-11	1.32713e-11	7.2691e-11	4.26655e-10	1.0727e-09	8.73059e-08	4.84817e-10	2.34614e-08	5.36672e-11	4.96435e-11	3.39122e-12	5.25492e-11	6.2239e-11	2.55975e-06	1.76422e-09	1.07962e-11	2.92314e-13	4.28567e-13	2.66787e-09	1.50988e-12	4.42084e-12	6.39154e-11	1.26825e-09	3.2127e-12	5.11595e-12	2.16892e-11	1.65372e-11	4.46543e-13	1.30482e-07	1.01281e-13	1.39672e-10	3.30678e-11	3.21405e-09	5.53956e-09	1.38871e-10	5.97813e-13	2.44887e-12	2.51006e-11	1.61881e-11	1.66878e-12	2.43941e-11	3.39469e-11	7.46709e-12	5.22011e-13	4.66828e-09	1.87713e-11	1.16896e-11	1.28687e-12	6.20432e-11	1.07665e-10	3.67506e-08	7.86155e-10	2.44322e-09	1.7544e-10	4.26281e-10	3.98195e-09	3.15284e-12	5.77253e-12	3.51588e-08	4.20138e-11	1.57557e-11	8.65469e-10	5.45001e-11	8.19918e-12	6.1176e-11	1.18321e-11	2.62711e-08	1.15069e-11	1.29158e-12	1.84588e-09	8.95142e-13	3.39529e-12	8.92812e-10	1.39791e-11	4.17354e-11	1.2193e-12	1.60053e-10	1.53381e-08	4.52646e-09	4.11527e-11	5.14971e-11	4.91236e-09	1.41498e-10	6.92775e-11	6.96851e-10	1.39221e-12	1.4273e-12	5.61803e-12	1.64611e-10	3.3213e-13	3.3252e-12	1.93473e-08
14	0.0163058	0.000325674	7.06798e-06	2.45758e-05	6.61126e-05	0.000236497	1.44355e-05	0.000314041	2.93104e-05	1.78293e-05	2.57411e-06	3.10314e-05	0.000326364	7.42132e-06	0.00018384	0.000324441	0.000216495	1.00802	7.1117e-06	0.00039552	4.52085e-05	2.32473e-05	2.65133e-05	1.84031e-05	5.02309e-06	2.41459e-06	0.000200328	0.000287473	3.44418e-06	8.75457e-07	7.44181e-06	1.68297e-06	2.85404e-05	0.000122369	3.48517e-05	5.64949e-06	1.18999e-05	2.4223e-06	2.89995e-05	1.91284e-05	4.4576e-05	0.000163885	0.000199887	0.000227976	0.000108611	2.54059e-05	4.59478e-05	5.43742e-05	8.75469e-06	4.47125e-05	4.89263e-05	1.00075	5.46054e-05	1.4685e-05	1.66578e-06	1.64878e-06	0.000333875	3.491e-06	5.08372e-06	4.75362e-05	0.000275023	4.32163e-06	5.62516e-06	2.46628e-05	1.21964e-05	1.69772e-06	0.000519254	7.48641e-07	7.95166e-05	3.38635e-05	0.000446968	0.00025909	6.85057e-05	2.77811e-06	4.78658e-06	3.54504e-05	1.68962e-05	3.55223e-06	2.66924e-05	2.90822e-05	8.40397e-06	2.57372e-06	0.000678334	2.24705e-05	2.02e-05	2.58899e-06	3.61016e-05	5.36421e-05	1.87007e-05	0.000251504	0.000333094	1.26248e-05	0.000137045	0.000330237	4.21468e-06	1.50265e-05	9.75974e-05	3.54241e-05	1.71265e-05	0.000315785	5.90504e-05	8.53935e-06	4.44834e-05	1.61629e-05	9.52074e-06	1.74565e-05	4.72616e-06	0.000324328	2.2901e-06	4.55403e-06	0.000282596	2.28255e-05	2.4988e-05	4.66701e-06	7.23404e-06	0.000250645	4.25359e-05	2.92056e-05	4.41116e-05	5.80453e-05	1.15339e-05	5.22446e-05	0.000172451	2.79929e-06	2.74502e-06	7.66305e-06	6.0956e-05	1.36878e-06	5.49918e-06	7.2644e-05
15	0.0619595	0.00630788	0.000103827	0.000432365	0.00104128	0.0394906	0.000215333	0.00511882	0.000438385	0.000263137	4.30637e-05	0.000466651	0.00521277	0.000108928	0.0399153	0.49248	0.0136521	0.38282	0.00010398	0.725197	0.000687591	0.000348237	0.00246315	0.000272857	7.41759e-05	3.53638e-05	0.00464909	0.0319309	5.03533e-05	1.2745e-05	0.00337981	2.45678e-05	0.000426237	0.00213599	0.000525949	8.29825e-05	0.000176017	3.54778e-05	0.000588683	0.000282563	0.000676751	0.00273962	0.0142366	0.985164	0.00365104	0.992481	0.000691297	0.000808919	0.000131176	0.000674621	0.000764941	0.00189571	0.0278319	0.000217374	2.42591e-05	2.39999e-05	0.0187535	5.11502e-05	7.50812e-05	0.000724956	0.00606094	6.37878e-05	8.31731e-05	0.000366937	0.000262038	2.47146e-05	0.819137	1.08807e-05	0.00122458	0.000505118	0.0107123	0.0242051	0.00109932	4.06243e-05	7.18607e-05	0.000554508	0.000339437	5.20759e-05	0.000408782	0.000439486	0.000125209	3.78098e-05	0.0134874	0.000611762	0.000299108	3.79379e-05	0.000691063	0.000819385	0.849792	0.00400071	0.011315	0.00323385	0.00238631	0.0202676	6.206e-05	0.000223075	0.708522	0.000528281	0.000254325	0.00504034	0.000879002	0.000126911	0.000668475	0.000239008	0.967332	0.000257634	6.92456e-05	0.0100528	3.34852e-05	6.72489e-05	0.0045006	0.000351342	0.000419678	6.86632e-05	0.00625205	0.0720769	0.0470428	0.000441577	0.000733772	0.0442657	0.00226942	0.000877608	0.00645861	4.09054e-05	4.0253e-05	0.00011285	0.00119638	1.99134e-05	8.08445e-05	0.207457
16	0.131522	0.023855	0.000463296	0.0016995	0.00442649	0.0547783	0.000950394	0.0217519	0.00205198	0.00118117	0.000175924	0.00204829	0.0227749	0.000486401	0.975964	1.08855	0.0258237	0.673613	0.00046714	0.324756	0.00299433	0.00153292	1.049	0.00121245	0.000329554	0.000158539	0.0152806	0.994741	0.000227498	5.7719e-05	0.998508	0.000110568	0.00194449	0.00856935	0.00230366	0.00037805	0.00078609	0.000159049	0.00209107	0.00126768	0.0029651	0.0114995	1.19299	0.0449032	0.00923044	0.0137297	0.00308151	0.0036256	0.000583245	0.00300066	0.00331337	0.00799745	0.989237	0.00097383	0.000109694	0.00010796	1.04856	0.000230106	0.000333547	0.00318062	0.0202764	0.000283379	0.00036922	0.00164164	0.000887553	0.000111173	0.266173	4.91596e-05	0.00541384	0.00225933	0.0340098	1.05499	0.00466396	0.00018452	0.000317039	0.00241363	0.00121318	0.000233922	0.00179502	0.00193814	0.000554169	0.000170912	0.0489039	0.00178901	0.00135316	0.000170045	0.00255462	0.00355979	0.163219	0.0169979	1.02968	0.0039017	0.00940176	1.35506	0.000276212	0.00102423	0.50207	0.00233771	0.00113389	0.022029	0.00393872	0.00056125	0.00294246	0.00107155	0.0463266	0.00115582	0.000314192	0.0278128	0.0001505	0.000298649	0.0191483	0.00154377	0.00169307	0.000313445	0.00669201	0.0847632	0.957693	0.00193841	0.00302369	0.0478171	0.00285914	0.00359638	0.0160141	0.000182644	0.000180375	0.000502982	0.00431687	8.95859e-05	0.00036192	0.810271
17	0.0430118	0.0126012	5.56293e-05	0.00123531	0.00112855	0.897501	0.000115217	0.0034474	0.00025115	0.000132637	0.000698129	0.000253858	0.00329221	5.44789e-05	0.0156152	0.358927	0.156121	0.938612	5.54786e-05	0.0453395	0.000399931	0.00018683	0.0021553	0.000140132	3.78185e-05	1.75396e-05	0.025214	0.0214416	3.31492e-05	6.17589e-06	0.00254094	1.20594e-05	0.000252021	0.00319308	0.000293131	4.05516e-05	8.94512e-05	1.75972e-05	0.00535962	0.000148061	0.000390574	0.00276575	0.0115514	0.0242963	0.0270421	0.0125859	0.000383783	0.00042561	0.000187542	0.000402904	0.000954681	0.00129609	0.00636377	0.00011407	1.17821e-05	1.17238e-05	0.014325	2.52534e-05	3.82943e-05	0.000585333	0.0126614	3.74907e-05	4.26503e-05	0.000196227	0.00170436	1.20734e-05	0.0645098	5.27426e-06	0.000722606	0.000264161	0.0263235	0.0174533	0.00109424	1.97731e-05	8.28878e-05	0.00112814	0.00255858	2.5937e-05	0.000511378	0.000326544	7.75851e-05	3.69992e-05	0.0169214	0.0222532	0.000153973	1.88645e-05	0.00238528	0.000471684	0.0312697	0.00258855	0.00975179	0.0982576	0.00653809	0.0148112	3.1443e-05	0.000113821	0.702557	0.000276209	0.000131561	0.00316709	0.000469069	7.42614e-05	0.000374219	0.000120851	0.0150401	0.000136372	3.37942e-05	0.0385329	1.65285e-05	3.88945e-05	0.00290275	0.00107941	0.00075196	3.46594e-05	0.398548	0.515374	0.00747206	0.000267731	0.00214295	0.593358	0.0551737	0.00197629	0.0520644	2.03042e-05	2.00213e-05	5.69962e-05	0.00381254	9.73666e-06	4.04534e-05	0.0167123
18	0.0084364	0.000106894	1.93911e-06	6.93009e-06	1.88972e-05	4.6395e-05	4.05398e-06	9.56048e-05	7.95934e-06	4.90338e-06	6.93674e-07	0.99448	9.69679e-05	2.03703e-06	5.63992e-05	0.000797389	9.2487e-05	6.04247e-06	0.0124214	0.000527496	1.29859e-05	6.57146e-06	7.35065e-06	5.12202e-06	1.39236e-06	6.5909e-07	6.5707e-05	8.7757e-05	9.75083e-07	2.35522e-07	2.06002e-06	4.56374e-07	4.85583e-05	4.00329e-05	9.93195e-06	1.52774e-06	3.29046e-06	6.61219e-07	8.89649e-06	5.26221e-06	1.2728e-05	4.82045e-05	0.000130597	1.4744e-05	4.07187e-05	2.81624e-06	1.28804e-05	1.50846e-05	5.14793e-05	1.25355e-05	4.5605e-05	3.55433e-05	1.5589e-05	4.04827e-06	4.48844e-07	4.45963e-07	9.93848e-05	9.50776e-07	1.40943e-06	4.61835e-05	0.000343128	1.1922e-06	1.56196e-06	6.83753e-06	6.47446e-05	4.59256e-07	0.00171298	2.01411e-07	2.27852e-05	9.42422e-06	0.000289593	8.13111e-05	2.15622e-05	7.49327e-07	3.21365e-05	0.000120745	4.66245e-06	9.69009e-07	7.40315e-06	8.15461e-06	2.33164e-06	6.93872e-07	0.000225687	4.90735e-05	5.53165e-06	7.07174e-07	1.02232e-05	1.55074e-05	5.34384e-06	7.56858e-05	0.000109008	1.14877e-05	3.25363e-06	0.000101058	1.16313e-06	4.07825e-06	0.000177779	9.94531e-06	4.75785e-06	9.37857e-05	1.6388e-05	2.37557e-06	1.25767e-05	4.45528e-06	1.45998e-05	4.79586e-06	1.27812e-06	0.00010933	6.22739e-07	1.25639e-06	8.51647e-05	6.25648e-06	9.38717e-06	1.26085e-06	1.38329e-05	0.000277057	1.32106e-05	8.26835e-06	1.23943e-05	4.78721e-05	8.89843e-06	1.46724e-05	0.000235469	7.64856e-07	7.50497e-07	2.1134e-06	1.78136e-05	3.69971e-07	1.50862e-06	0.000113545
19	0.0083963	8.60777e-05	1.87357e-06	6.50959e-06	1.75192e-05	4.11328e-05	3.82648e-06	8.30689e-05	7.7357e-06	4.72332e-06	6.88587e-07	0.000154553	8.62576e-05	1.96722e-06	6.3177e-05	1.01183	5.71992e-05	6.77211e-06	2.10109e-05	0.000105331	1.19826e-05	6.16209e-06	7.01985e-06	4.87724e-06	1.33158e-06	6.3994e-07	5.1299e-05	7.61522e-05	9.12382e-07	2.31933e-07	1.97253e-06	4.45994e-07	1.38218e-05	3.23828e-05	9.23781e-06	1.49537e-06	3.15294e-06	6.41985e-07	7.67964e-06	5.0674e-06	1.181e-05	4.33303e-05	2.86973e-05	1.12313e-05	2.87787e-05	2.68411e-06	1.21646e-05	1.44006e-05	2.61995e-06	1.18376e-05	2.41876e-06	3.16178e-05	1.44482e-05	3.88987e-06	4.41346e-07	4.3703e-07	8.82416e-05	9.24965e-07	1.34765e-06	9.13971e-06	6.92484e-05	1.14565e-06	1.49117e-06	6.53166e-06	2.73949e-06	4.49999e-07	0.00192545	1.98386e-07	2.10386e-05	8.96723e-06	4.72431e-05	6.86777e-05	1.81374e-05	7.3567e-07	1.96538e-06	2.0008e-05	4.47454e-06	9.41265e-07	7.06723e-06	7.70333e-06	2.22725e-06	6.81604e-07	0.000179628	2.44264e-05	5.34664e-06	6.86151e-07	9.56218e-06	1.42182e-05	3.18958e-06	6.66258e-05	8.83349e-05	8.38651e-06	2.49034e-06	8.73515e-05	1.11729e-06	3.9723e-06	6.26758e-05	9.38814e-06	4.53732e-06	8.34626e-05	1.56388e-05	2.26366e-06	1.17886e-05	4.28135e-06	1.34761e-05	4.62471e-06	1.25142e-06	8.56655e-05	6.06891e-07	1.20726e-06	7.48447e-05	6.04126e-06	6.62366e-06	1.23491e-06	1.02665e-05	0.000229692	1.12687e-05	7.73843e-06	1.35313e-05	8.47629e-06	3.05736e-06	1.38317e-05	5.13223e-05	7.42221e-07	7.27489e-07	2.03121e-06	1.61568e-05	3.62819e-07	1.45729e-06	1.2036e-05
20	0.0253142	0.000788154	1.70403e-05	5.93066e-05	0.000159476	0.000380955	3.48061e-05	0.000759423	7.10192e-05	4.30157e-05	1.00703	0.000222794	0.000789824	1.78923e-05	0.000458003	0.001394	0.000524195	1.00133	0.000148188	0.000954606	0.000109027	5.60559e-05	6.40087e-05	4.43805e-05	1.211e-05	5.82252e-06	0.000470079	0.000693937	8.30966e-06	2.11199e-06	1.79424e-05	4.05873e-06	0.00012573	0.00029573	8.40439e-05	1.36431e-05	2.87052e-05	5.84114e-06	6.99962e-05	4.61503e-05	0.000107547	0.000396421	0.000263055	0.000102339	0.000262054	2.44113e-05	0.000110942	0.000131231	2.38231e-05	0.00010796	2.20087e-05	0.000287782	0.000131923	3.54341e-05	4.01824e-06	3.97531e-06	0.000808005	8.42085e-06	1.22562e-05	8.33015e-05	0.000630189	1.04184e-05	1.35617e-05	5.95234e-05	2.49095e-05	4.09332e-06	1.00833	1.80552e-06	0.000192158	8.17413e-05	0.000429324	0.000625311	0.000165431	6.70546e-06	1.7903e-05	0.000182724	4.07801e-05	8.56776e-06	6.44418e-05	7.01785e-05	2.02667e-05	6.21153e-06	0.00164034	0.00022251	4.8783e-05	6.24318e-06	8.71275e-05	0.000129373	2.90443e-05	0.000607109	0.000804225	7.63472e-05	2.26619e-05	0.000798599	1.01607e-05	3.63406e-05	0.000570917	8.54307e-05	4.13181e-05	0.000764209	0.000142519	2.05879e-05	0.000107288	3.9e-05	0.00012293	4.21144e-05	1.14086e-05	0.000785506	5.52288e-06	1.09787e-05	0.000682338	5.5127e-05	6.02555e-05	1.12746e-05	9.36099e-05	0.000721339	0.000102613	7.04538e-05	0.000108514	7.76667e-05	2.78101e-05	0.000126145	0.000467154	6.74684e-06	6.61963e-06	1.84763e-05	0.000147019	3.30011e-06	1.32625e-05	0.000109747
21	0.0251904	0.000784678	1.68956e-05	5.88734e-05	0.000158451	0.000378107	3.45532e-05	0.000756926	7.0362e-05	4.26584e-05	6.1531e-06	0.00459113	0.000786344	1.77408e-05	0.00278797	0.000806932	0.000521649	5.11934e-05	0.000141837	0.000953014	0.000108356	5.56681e-05	6.35004e-05	4.40365e-05	1.20137e-05	5.77156e-06	0.000467749	0.00069144	8.23219e-06	2.09199e-06	1.77944e-05	4.02187e-06	0.000124968	0.000294392	8.34985e-05	1.35181e-05	2.84729e-05	5.79002e-06	6.94486e-05	4.57677e-05	0.000106851	0.000394425	0.000260981	0.00010153	0.000260618	2.42195e-05	0.000110124	0.000130204	2.36194e-05	0.000107163	2.18136e-05	0.000286544	0.000130944	3.51424e-05	3.98047e-06	3.9387e-06	0.000804457	8.34629e-06	1.21589e-05	1.00499	0.00062721	1.0333e-05	1.34551e-05	5.90508e-05	2.47046e-05	4.05565e-06	1.00485	1.78841e-06	0.000190953	8.11086e-05	0.000428246	0.000624303	0.000164438	6.643e-06	1.77489e-05	0.000181402	4.04375e-05	8.49258e-06	6.39306e-05	6.96595e-05	2.01059e-05	6.15348e-06	0.00164188	0.000221266	4.8365e-05	6.18875e-06	1.00869	0.000128633	2.87979e-05	0.000604863	0.000804592	7.58069e-05	2.24604e-05	0.000796004	1.00774e-05	3.60136e-05	0.000568752	8.4807e-05	4.09935e-05	0.000760825	0.000141407	2.0428e-05	0.000106543	3.86788e-05	0.000122043	4.17623e-05	1.13036e-05	0.000781926	5.47351e-06	1.08887e-05	0.000679866	5.46567e-05	5.98439e-05	1.11704e-05	9.2904e-05	0.00681954	0.000101942	6.99669e-05	0.000989031	7.69825e-05	2.75851e-05	0.000125213	0.000464861	6.6881e-06	6.56224e-06	1.83243e-05	0.000146213	3.2696e-06	1.31498e-05	0.000108901
22	0.00834418	8.92359e-05	1.87196e-06	6.57517e-06	1.7834e-05	4.15344e-05	3.86574e-06	8.69688e-05	7.67998e-06	4.7273e-06	6.75699e-07	0.999718	8.94261e-05	1.96599e-06	0.00252928	9.39258e-05	5.90729e-05	5.63979e-06	1.58092e-05	0.000111703	1.2228e-05	6.24471e-06	7.05017e-06	4.90608e-06	1.33695e-06	6.37893e-07	5.29331e-05	7.9485e-05	9.04794e-07	2.29692e-07	1.9753e-06	4.43242e-07	1.41141e-05	3.35347e-05	9.39759e-06	1.4852e-06	3.1619e-06	6.39942e-07	7.72084e-06	5.07241e-06	1.20178e-05	4.46708e-05	2.88479e-05	1.12822e-05	2.95444e-05	2.69721e-06	1.22795e-05	1.44755e-05	2.61626e-06	1.19495e-05	2.4085e-06	3.27985e-05	1.4581e-05	3.8961e-06	4.3736e-07	4.33808e-07	9.14945e-05	9.21184e-07	1.35321e-06	0.000687172	7.1564e-05	1.14767e-06	1.49842e-06	6.55971e-06	2.7438e-06	4.46709e-07	0.00546587	1.9644e-07	2.145e-05	9.02206e-06	4.97527e-05	7.28907e-05	1.85365e-05	7.29615e-07	1.9618e-06	2.02256e-05	4.47509e-06	9.38081e-07	7.09834e-06	7.77456e-06	2.23676e-06	6.75808e-07	0.000194975	2.50528e-05	5.33949e-06	6.84174e-07	0.000484653	1.45622e-05	3.18733e-06	6.94802e-05	9.54597e-05	8.48791e-06	2.47915e-06	9.14839e-05	1.11931e-06	3.95219e-06	6.53074e-05	9.48205e-06	4.56008e-06	8.6512e-05	1.57232e-05	2.27662e-06	1.19444e-05	4.28807e-06	1.36238e-05	4.62619e-06	1.24247e-06	8.87115e-05	6.03925e-07	1.20941e-06	7.81064e-05	6.03521e-06	6.71817e-06	1.22577e-06	1.03481e-05	0.00628122	1.14607e-05	7.84376e-06	0.000890083	8.44879e-06	3.06597e-06	1.39613e-05	5.29541e-05	7.40114e-07	7.25709e-07	2.03445e-06	1.65829e-05	3.60022e-07	1.45606e-06	1.21142e-05
23	0.0250376	0.000775223	1.66915e-05	5.81627e-05	0.000156542	0.000373486	3.41366e-05	0.000747838	6.95054e-05	4.21428e-05	6.0942e-06	0.00444212	0.000776866	1.75265e-05	1.00088	0.0013783	0.000515359	5.18044e-05	0.000145422	0.00094222	0.000107052	5.49972e-05	6.27326e-05	4.3505e-05	1.18687e-05	5.7018e-06	0.000462104	0.00068315	8.13256e-06	2.06667e-06	1.75796e-05	3.97324e-06	0.000123467	0.000290852	8.24928e-05	1.33543e-05	2.81289e-05	5.72005e-06	6.86093e-05	4.52145e-05	0.000105563	0.000389669	0.000257817	0.000100303	0.000257484	2.39272e-05	0.000108793	0.000128631	2.33347e-05	0.000105868	2.15503e-05	0.000283108	0.00012936	3.47176e-05	3.9323e-06	3.89108e-06	0.000794761	8.24536e-06	1.20121e-05	0.000762327	0.00061975	1.02082e-05	1.32928e-05	5.83371e-05	2.44079e-05	4.00662e-06	0.00442332	1.76677e-06	0.000188647	8.01283e-05	0.000423232	0.000616865	0.000162457	6.56255e-06	1.75345e-05	0.000179212	3.99484e-05	8.3899e-06	6.31575e-05	6.88184e-05	1.98631e-05	6.07897e-06	0.00162244	0.000218606	4.77794e-05	6.11396e-06	0.000563653	0.000127086	2.84499e-05	0.000597609	0.000795088	7.48926e-05	2.21889e-05	0.000786448	9.95574e-06	3.55765e-05	0.000561954	8.37839e-05	4.04983e-05	0.000751655	0.000139698	2.01815e-05	0.000105258	3.82113e-05	0.000120569	4.12574e-05	1.11667e-05	0.000772495	5.40733e-06	1.07572e-05	0.00067171	5.39948e-05	5.9123e-05	1.1035e-05	9.17815e-05	0.995288	0.000100714	6.91232e-05	1.01202	7.60475e-05	2.72523e-05	0.0001237	0.000459313	6.60733e-06	6.48293e-06	1.81031e-05	0.000144455	3.23007e-06	1.29909e-05	0.000107591
24	1e-06	5.84233e-10	2.93089e-12	1.99229e-11	7.25393e-11	1.22632e-10	1.17948e-11	6.78565e-10	5.4579e-12	8.46759e-12	8.70262e-09	1.18013e-09	5.79856e-10	3.13913e-12	4.37157e-07	1.92986e-06	3.70361e-10	1.17824e-07	8.33845e-08	1.73988e-09	5.38074e-11	2.16545e-11	1.59042e-11	1.21133e-11	2.97232e-12	7.99025e-13	3.14913e-10	5.89657e-10	5.12007e-13	8.77179e-14	3.69509e-12	3.78091e-13	7.34668e-11	2.1555e-10	3.74144e-11	1.13799e-12	6.51363e-12	8.02934e-13	1.86374e-11	9.18402e-12	4.82496e-11	2.56774e-10	9.41238e-11	2.64968e-11	1.58417e-10	6.29704e-12	3.60661e-11	3.42946e-11	1.05936e-11	3.51195e-11	7.71677e-12	2.16751e-10	4.2295e-11	7.38002e-12	2.04228e-13	2.99497e-13	5.94902e-10	1.04339e-12	3.025e-12	7.92544e-11	6.2322e-10	2.20063e-12	3.49678e-12	1.47736e-11	1.6926e-11	3.12024e-13	1.95042e-05	7.10319e-14	9.16433e-11	2.24967e-11	6.15005e-10	7.05794e-10	8.6052e-11	4.1909e-13	6.03025e-12	8.77705e-11	7.58629e-12	1.15134e-12	1.6091e-11	2.26282e-11	5.03539e-12	3.63449e-13	2.47204e-09	1.3639e-10	7.99755e-12	8.8614e-13	6.63152e-11	7.13049e-11	5.41202e-12	5.06422e-10	1.1625e-09	2.83924e-11	2.76515e-12	7.18398e-10	2.15479e-12	3.9413e-12	5.25644e-10	2.85531e-11	1.07135e-11	5.5881e-10	3.76388e-11	5.572e-12	4.11075e-11	8.1023e-12	4.28781e-11	7.9637e-12	8.94209e-13	5.72667e-10	6.19174e-13	2.32265e-12	5.76099e-10	9.30826e-12	2.50417e-11	8.39807e-13	2.90083e-11	8.26841e-07	4.5766e-11	2.73828e-11	1.52341e-07	1.50533e-11	7.72631e-12	4.08655e-11	4.17588e-10	9.62837e-13	9.8211e-13	3.85486e-12	8.60408e-11	2.32248e-13	2.28277e-12	6.4338e-11
25	0.00834555	0.00010505	1.89862e-06	6.78973e-06	1.85203e-05	4.55033e-05	3.97149e-06	9.38381e-05	7.79164e-06	4.80129e-06	6.85661e-07	0.00980203	9.5123e-05	1.99452e-06	6.78812e-05	0.000482179	9.12528e-05	6.94215e-06	0.989906	0.000524729	1.27284e-05	6.43873e-06	7.19898e-06	5.01673e-06	1.36361e-06	6.45255e-07	6.46054e-05	8.61349e-05	9.55342e-07	2.30504e-07	2.01741e-06	4.46729e-07	4.82567e-05	3.934e-05	9.73321e-06	1.49537e-06	3.22235e-06	6.4734e-07	8.73059e-06	5.15268e-06	1.24739e-05	4.72759e-05	0.000129969	1.4501e-05	4.00994e-05	2.75829e-06	1.26179e-05	1.47734e-05	5.14219e-05	1.22801e-05	4.55516e-05	3.48688e-05	1.5277e-05	3.96421e-06	4.39296e-07	4.36511e-07	9.74975e-05	9.30774e-07	1.38034e-06	4.59694e-05	0.000341569	1.16745e-06	1.52977e-06	6.69643e-06	6.46837e-05	4.49524e-07	0.00101075	1.97119e-07	2.23327e-05	9.23056e-06	0.000288492	7.98661e-05	2.11722e-05	7.33407e-07	3.20936e-05	0.000120308	4.56571e-06	9.48657e-07	7.25047e-06	7.9884e-06	2.28355e-06	6.79123e-07	0.000221962	4.85454e-05	5.416e-06	6.92341e-07	1.00173e-05	1.52025e-05	5.27481e-06	7.42666e-05	0.000107176	1.13069e-05	3.19975e-06	9.91998e-05	1.13901e-06	3.99223e-06	0.000176416	9.74281e-06	4.65987e-06	9.20005e-05	1.60501e-05	2.32672e-06	1.23227e-05	4.36276e-06	1.43091e-05	4.6959e-06	1.25104e-06	0.000107491	6.09615e-07	1.23031e-06	8.35705e-05	6.1258e-06	9.24424e-06	1.23411e-06	1.36111e-05	0.000220254	1.29679e-05	8.10164e-06	1.38707e-05	4.7687e-05	8.83213e-06	1.43739e-05	0.000234327	7.48814e-07	7.3477e-07	2.06953e-06	1.74673e-05	3.62124e-07	1.47712e-06	0.000113278
26	0.162976	0.080765	0.000715553	0.00268363	0.00692198	0.0400608	0.00147458	0.0346074	0.00653493	0.00183132	0.000276089	0.0138706	0.0362514	0.000751234	0.0246754	0.828748	0.217206	0.00609132	0.013688	0.795741	0.00466814	0.00238163	0.00276738	0.00187918	0.000509854	0.00024479	0.104319	0.0335379	0.00260114	8.90413e-05	0.0008289	0.000170585	1.062	0.0347022	0.00358553	0.00058634	0.00121821	0.000245579	0.0159146	0.0019658	0.00462452	0.018298	1.03424	0.0391159	0.0607618	0.00107028	0.00480706	0.00564032	1.00148	0.00468217	1.01638	0.0125613	0.00818897	0.0015103	0.000169192	0.000166347	0.0377123	0.000355575	0.000516054	1.03463	0.976313	0.000438093	0.000571439	0.00255097	0.993847	0.000171306	1.53913	7.57441e-05	0.00851105	0.00351511	1.03113	0.029508	0.0223118	0.000285411	1.00158	1.02687	0.0019458	0.000361469	0.00280053	0.00301812	0.000858862	0.000264386	0.0788841	1.09677	0.00210285	0.000262605	0.00406893	0.00555688	0.040448	0.0268148	0.0367106	0.0456657	0.0174428	0.0375134	0.000426922	0.00159765	0.980307	0.00362955	0.00175955	0.0350586	0.00612849	0.000869283	0.00457571	0.00166167	0.00787432	0.00179145	0.000486207	0.0941089	0.000232312	0.000461715	0.0302302	0.00241185	0.01828	0.000486451	0.0445004	0.296677	0.0102545	0.00301803	0.00476415	0.859093	0.0669519	0.00566934	0.95675	0.000281533	0.000278636	0.00077772	0.00689095	0.000138003	0.000559608	0.803422
27	0.148995	1.03069	0.000598695	0.00226837	0.00581739	0.0366021	0.00123539	0.0290808	1.12963	0.00153014	0.000232495	0.00273746	0.0303391	0.000628516	0.0216695	0.487241	0.995508	0.00569399	0.000658741	0.309195	0.003917	0.00199594	0.00231399	0.001573	0.00042684	0.000204674	0.0998965	0.0286651	1.00594	7.43275e-05	0.000705662	0.000142547	0.00421684	1.04754	0.00300644	0.000488717	0.00101891	0.000205334	1.0038	0.00164256	0.00387696	0.0153614	0.0556746	1.08326	0.963396	0.000902803	0.00401886	0.00471204	0.00557228	0.00391513	0.013616	0.0105725	0.00723796	0.0012624	0.000141276	0.000139028	0.0316611	0.000297113	0.000432034	0.0110871	0.0772818	0.000366738	0.000478442	0.00213233	0.0111437	0.000143172	0.270385	6.32603e-05	0.00711867	0.00293817	0.0895947	0.0251349	1.03684	0.000238072	0.00483839	0.0118128	0.00165895	0.000302111	0.00234394	0.00252704	0.000719128	0.000220645	0.0673674	0.773261	0.00175469	0.000219574	0.00345785	0.00466348	0.0401342	0.0225511	0.0311682	0.0450918	0.0171795	0.0317006	0.000357345	0.00132952	0.417727	0.00303968	0.00147191	0.0293402	0.00511993	0.000728052	0.0038343	0.00138883	0.0069944	0.00149694	0.000405655	1.24819	0.000194162	0.000386522	0.0254204	0.00201772	0.987883	0.000405354	0.0437725	1.05947	0.00954465	0.00252941	0.00401006	0.464327	0.937041	0.00477277	1.12312	0.000235582	0.000232983	0.000650804	0.00587318	0.000115339	0.000467956	0.225797
28	0.0545106	0.0409639	8.93081e-05	0.00129413	0.00145547	0.201818	0.000191172	0.00564993	0.00333595	0.000219352	0.000704463	0.000486188	0.0054731	9.00817e-05	0.0234987	0.189127	0.0350952	0.233186	0.000138665	0.0463143	0.000658044	0.000312563	0.000468509	0.000234289	6.2922e-05	2.88512e-05	0.968145	0.0120628	0.00226559	1.00067e-05	0.000824269	1.97021e-05	0.00194825	0.0206288	0.000486763	6.62158e-05	0.000148875	2.89469e-05	0.00877078	0.000241056	0.000641699	0.00366707	0.0312224	0.0156412	0.0242561	0.000536658	0.000627715	0.0007009	0.00484373	0.000638374	0.00935142	0.00204055	0.0221342	0.00018638	1.91291e-05	1.90911e-05	0.00766833	4.14878e-05	6.37219e-05	0.0072928	0.0460017	5.84323e-05	7.0966e-05	0.000320984	0.00857878	1.96645e-05	0.0594262	8.54201e-06	0.0011842	0.000439065	0.0366796	0.00877725	0.015118	3.21611e-05	0.00441716	0.00818785	0.00253037	4.25646e-05	0.00063465	0.00047616	0.00011901	4.82536e-05	0.0211782	0.269233	0.000251818	3.10344e-05	0.00240944	0.000784421	0.94745	0.00425706	0.00745009	0.863575	1.13759	0.00856715	5.21233e-05	0.000184855	0.130028	0.000464072	0.000218896	0.0052755	0.000768355	0.000117032	0.000615039	0.000200663	0.0263535	0.000220616	5.5229e-05	0.037705	2.70711e-05	6.09373e-05	0.00479945	0.0011775	0.0154526	5.59075e-05	0.625806	0.189019	0.0369693	0.000425348	0.00228429	0.142562	0.00949148	0.00215164	0.147992	3.3398e-05	3.29893e-05	9.45676e-05	0.00390628	1.58298e-05	6.68735e-05	0.0229192
29	0.0790096	0.0776548	0.00113671	0.194698	0.056936	0.2991	0.000766748	0.0269857	0.00277083	0.000710469	0.639112	0.00133515	0.0270383	0.000230757	0.0842375	0.286977	0.533847	0.0880623	0.00121218	0.905864	0.00333219	0.00110984	0.00505708	0.000660575	0.000169325	7.17873e-05	0.029084	0.0467055	0.000402519	2.21854e-05	0.00181074	4.84606e-05	0.00146469	0.0119385	0.00217292	0.000192133	0.000412263	7.20543e-05	0.0677603	0.00219313	0.00369585	0.0696482	0.056611	0.0249385	0.0620873	0.00105147	0.00460903	0.00410511	0.0116891	0.0103313	0.00596285	0.0136228	0.470948	0.0014089	4.33202e-05	4.41393e-05	0.0305654	0.0001015	0.000171648	0.00468209	0.028536	0.00148641	0.000203363	0.00260392	0.00301915	4.48994e-05	0.346077	1.88996e-05	0.00720247	0.00176937	0.0940527	0.0214005	0.00385147	8.81095e-05	0.000180289	0.00945266	0.472123	0.000153393	0.0812938	0.0310508	0.00188553	0.0133979	0.31315	0.00325258	0.00179359	9.11931e-05	0.194205	0.00356217	0.0666777	0.0188605	0.0284187	0.0116879	0.0127982	0.0268475	0.000139152	0.00186215	0.211785	0.00137725	0.000749694	0.0248237	0.00567176	0.00161806	0.00400377	0.00058297	0.018698	0.00225208	0.000130997	0.364367	7.15603e-05	0.00110674	0.0211479	0.679061	0.00192616	0.000739913	0.660142	0.124221	0.122273	0.00419217	0.323533	0.111992	0.0698223	0.185942	0.290641	8.20349e-05	8.32673e-05	0.000253446	0.268259	4.80226e-05	0.00017353	0.297778
30	0.811031	2.03862	0.602659	1.07913	1.02843	2.30965	0.106335	1.74559	2.26319	0.141436	0.623729	0.0892533	1.61925	0.020136	2.12901	1.91228	1.39128	0.408418	1.54973	1.91239	0.313927	0.111674	1.42032	0.0522352	0.0137947	0.00657021	1.12222	1.2264	0.0111764	0.0026341	0.0224769	0.00576738	0.139073	1.60108	0.394394	0.071758	0.0343663	0.00659819	1.43325	1.31919	0.914554	1.35687	2.43125	0.916369	1.04002	0.147532	1.37457	1.22951	0.249776	1.06375	1.6471	1.28133	1.01647	0.990216	0.00493007	0.00496711	2.00807	0.00976919	0.0139648	0.703531	1.90299	1.02339	0.0188436	1.31433	0.0388141	0.00450617	1.63746	0.00200206	0.977512	0.245143	2.3818	1.06925	0.220489	0.0350904	0.0134406	0.936111	0.181997	0.051175	0.152571	0.122758	0.0249409	0.0237207	1.80796	1.06007	0.940728	0.0267047	0.973657	0.388376	0.149616	1.13465	1.00862	0.698924	0.471818	1.24814	0.0114145	0.903195	1.51497	0.102881	0.103667	1.51388	1.83023	0.613128	0.958771	0.0607617	1.18242	1.21266	0.0139957	2.09693	0.00940958	0.598068	1.33315	0.801427	0.580142	0.819658	0.929588	1.0069	0.308708	1.30263	1.12627	0.766323	0.165721	0.967307	1.83468	0.00726146	0.00752862	0.0221211	0.959869	0.0251948	0.0153264	1.49748
31	1e-06	9.53812e-10	9.18174e-12	3.8083e-13	1.35656e-10	2.37892e-09	2.95398e-11	4.39434e-09	4.98864e-08	2.1729e-11	9.36184e-11	7.91233e-11	3.13549e-05	7.87712e-12	1.19725e-08	7.16641e-09	1.39034e-10	1.79309e-11	2.7912e-11	5.68863e-06	1.39254e-10	2.99408e-10	8.42809e-11	3.04984e-11	7.41454e-12	1.99799e-12	2.38518e-08	3.21421e-08	1.25728e-12	2.08538e-13	9.21733e-12	9.33232e-13	7.64222e-08	1.80171e-09	4.80425e-11	7.55286e-07	1.77683e-11	2.00389e-12	1.24627e-08	1.29263e-10	2.36719e-11	6.69452e-10	1.20093e-10	7.85962e-10	1.97634e-07	2.47225e-12	1.62185e-08	7.44659e-10	2.27235e-11	8.8823e-11	8.98783e-11	3.52507e-08	7.52283e-11	2.31175e-11	5.00366e-13	7.21228e-13	3.54837e-08	2.59027e-12	7.58619e-12	8.42081e-11	5.02185e-08	1.81258e-11	8.69586e-12	3.79636e-09	1.71722e-11	7.51483e-13	2.89699e-08	1.7254e-13	2.38737e-10	2.94577e-07	6.04071e-10	1.87978e-09	2.29559e-10	1.00218e-12	3.89595e-09	3.36998e-11	2.13837e-10	2.86374e-12	4.10564e-11	5.84731e-11	5.40512e-09	8.68509e-13	8.28678e-09	6.29974e-11	2.15377e-11	7.35865e-12	6.35135e-11	5.52797e-11	2.29981e-11	1.34218e-09	1.91652e-08	7.19967e-11	2.83295e-08	2.09438e-09	5.41168e-12	2.20532e-10	1.30735e-09	1.04977e-08	2.73285e-11	4.49964e-08	2.82135e-08	4.17243e-12	8.55813e-12	2.04149e-11	8.55547e-11	1.81479e-08	2.25172e-12	1.58459e-08	1.53316e-12	9.00629e-13	1.25531e-08	6.48315e-11	9.21583e-12	1.36589e-11	7.14611e-11	5.03362e-10	1.04797e-11	1.05386e-11	3.67333e-11	2.84305e-11	1.60709e-11	1.95833e-10	1.42267e-09	2.37025e-12	2.45785e-12	9.62658e-12	6.70448e-11	5.58884e-13	6.03712e-12	3.02781e-11
32	0.198666	0.0369684	0.00111303	0.000243496	0.00865626	0.0266581	0.00215917	0.0497749	1.27046	0.00271017	0.00601877	0.00464646	1.11155	0.00110863	0.0599723	0.053765	0.00634875	0.00333418	0.00208752	0.0536709	0.0067775	0.00348048	0.00287124	0.00276278	0.000749867	0.000362159	1.12063	1.31405	0.000522444	0.000132601	0.00111296	0.000253028	1.02616	0.0150907	0.00374016	1.01425	0.00179656	0.000363323	1.00875	0.00290843	0.00226677	0.0257513	0.00315752	0.0282262	1.04178	0.000867389	1.01184	0.00833577	0.00285458	0.00580431	0.0060191	1.02617	0.00537295	0.00222784	0.000251711	0.000246753	0.136262	0.000527102	0.00075894	0.00711395	1.16728	0.00162698	0.000839965	1.03903	0.00184172	0.000254103	1.09896	0.000112654	0.0103648	0.00518567	0.0196155	0.0392032	0.0105376	0.000425621	1.00744	0.00503188	0.00160509	0.00053535	0.00410091	0.00442011	1.00236	0.000393428	0.0928537	0.00471143	0.00228135	0.000751167	0.00466829	0.00419608	0.00285423	0.0383224	1.06172	0.00476993	1.09703	0.051955	0.000628699	0.0103354	0.0441414	1.02078	0.00259159	1.10862	1.06661	0.000660002	0.00152826	0.00245622	0.0062638	1.04613	0.000724295	1.21278	0.000344264	0.000386622	0.0526083	0.00478697	0.00138831	0.00126471	0.00503022	0.0150376	0.00131497	0.00124515	0.00498697	0.00520122	0.00202677	0.0126981	0.0372382	0.000415645	0.000412065	0.00114619	0.00477474	0.000204729	0.000826943	0.0048234
33	0.0086676	9.77602e-05	2.15239e-06	4.54406e-07	2.38841e-05	0.000232926	4.24139e-06	0.000306102	0.000344652	5.42026e-06	1.164e-05	9.18926e-06	0.0433263	2.15738e-06	0.000534166	0.000796071	2.85797e-05	6.12523e-06	1.21167e-05	0.981617	1.35184e-05	4.25504e-05	4.1527e-05	5.36238e-06	1.46182e-06	6.95766e-07	0.000188034	0.000181736	9.79147e-07	2.4831e-07	2.15208e-06	4.80366e-07	5.47236e-05	0.000172032	7.35639e-06	0.000443068	3.62706e-06	6.9502e-07	8.53279e-06	4.55543e-05	4.3578e-06	4.89753e-05	4.77525e-05	5.68117e-05	0.000156772	1.58762e-06	1.36585e-05	0.000139177	5.39084e-06	1.13787e-05	1.288e-05	1.94673e-05	1.03699e-05	4.33771e-06	4.73053e-07	4.69692e-07	0.00239106	9.99812e-07	1.49643e-06	1.34334e-05	0.000259535	3.15672e-06	1.63628e-06	4.60259e-06	3.53632e-06	4.83681e-07	7.56345e-05	2.12351e-07	2.0815e-05	0.0414663	3.99705e-05	8.48162e-05	2.05747e-05	7.89526e-07	1.37744e-06	9.36602e-06	5.71898e-05	1.01866e-06	7.78475e-06	8.56373e-06	2.44759e-06	7.31167e-07	0.000237949	9.08565e-06	4.46697e-06	1.46158e-06	9.12073e-06	8.09118e-06	5.42447e-06	7.81878e-05	0.000200664	9.32544e-06	0.00027985	0.000108202	1.21991e-06	2.04991e-05	8.50214e-05	1.04143e-05	4.98252e-06	0.000104687	7.94309e-05	1.26352e-06	2.90575e-06	4.67327e-06	1.22465e-05	4.5018e-05	1.34582e-06	0.000102873	6.55096e-07	7.12422e-07	0.000554476	9.23371e-06	2.6415e-06	2.46673e-06	9.84077e-06	3.0921e-05	2.52145e-06	2.40566e-06	9.24614e-06	9.18427e-06	3.85621e-06	2.40931e-05	7.65208e-05	8.03887e-07	7.88593e-07	2.21682e-06	9.2421e-06	3.89714e-07	1.64797e-06	8.75075e-06
34	0.0335384	0.000915163	3.15299e-05	6.79458e-06	0.000225039	0.000724032	6.11881e-05	0.00147999	0.00398993	7.56286e-05	0.000167618	0.000131591	0.0519827	3.14344e-05	0.00185676	1.02108	0.000176045	9.08906e-05	5.74744e-05	0.0171817	0.000191799	9.85742e-05	7.64953e-05	7.80149e-05	2.12801e-05	1.02299e-05	1.01905	0.00116031	1.46031e-05	3.71098e-06	3.15272e-05	7.13065e-06	0.000221205	0.000424315	0.000105493	0.000363453	1.00011	1.02626e-05	0.000123466	8.11429e-05	6.35588e-05	0.000680451	8.5035e-05	0.000791925	0.000371634	2.37141e-05	0.000195756	1.01144	7.92564e-05	0.000163704	0.000170034	0.000221262	0.000149899	6.24827e-05	7.06006e-06	6.98212e-06	0.00396274	1.47987e-05	2.15372e-05	0.000195598	0.00136714	4.59228e-05	2.38324e-05	6.82679e-05	5.17239e-05	7.18945e-06	0.00104157	3.17161e-06	0.00029121	0.000335651	0.000548988	0.0011032	0.0002914	1.17886e-05	2.02898e-05	0.000135154	4.48694e-05	1.50561e-05	0.000113386	0.000123456	3.56228e-05	1.09191e-05	0.00263857	0.000131554	6.50602e-05	2.13174e-05	0.000131786	0.000117223	7.92383e-05	0.00107015	0.00501636	0.000134281	0.000657447	0.00141032	1.78522e-05	0.000289917	0.00117374	0.000150211	7.26545e-05	0.00154478	0.00111538	1.86193e-05	4.29091e-05	7.06024e-05	0.000176913	0.000622244	2.00596e-05	0.00142707	9.70354e-06	1.06502e-05	0.00142898	0.000133636	3.89205e-05	3.58768e-05	0.000141957	0.000424188	3.70039e-05	3.52301e-05	0.000136404	0.000136927	5.66403e-05	0.000345188	0.00101285	1.18487e-05	1.16313e-05	3.24658e-05	0.000133241	5.79599e-06	2.33071e-05	0.000129783
35	0.024507	0.000487106	1.68687e-05	3.62549e-06	0.000119911	1	3.27859e-05	0.0140049	0.00216154	4.04318e-05	8.97625e-05	7.05618e-05	0.00245685	1.68129e-05	0.00091758	0.00078172	9.41455e-05	4.84924e-05	3.06691e-05	0.0156483	0.000102932	5.28395e-05	4.07495e-05	4.17629e-05	1.13913e-05	5.46803e-06	0.000331147	0.000623772	7.79449e-06	1.98048e-06	1.68674e-05	3.80906e-06	0.000118725	0.000227778	5.64931e-05	0.000171038	3.17174e-05	5.48553e-06	6.60894e-05	4.33795e-05	3.40049e-05	0.000364425	4.53354e-05	0.000425609	0.000197896	1.26439e-05	0.000104847	0.000133026	4.2352e-05	8.7727e-05	9.10774e-05	0.000118761	8.02519e-05	3.34281e-05	3.76859e-06	3.72987e-06	0.00210798	7.90637e-06	1.15291e-05	0.000104587	0.000735015	2.45822e-05	1.27592e-05	3.64109e-05	2.76672e-05	3.84064e-06	0.000556011	1.69309e-06	0.000156318	0.000120554	0.0002952	0.000595849	0.000156221	6.28967e-06	1.08428e-05	7.20668e-05	2.39742e-05	8.04564e-06	6.06146e-05	6.60848e-05	1.90644e-05	5.82605e-06	0.00143317	7.04225e-05	3.48314e-05	1.14111e-05	7.05954e-05	6.27474e-05	4.23425e-05	0.000576015	0.00992251	7.1942e-05	0.00456462	0.000758346	9.55295e-06	0.000155533	0.000629426	8.04651e-05	3.8872e-05	0.994616	1.03371	9.95382e-06	2.29322e-05	0.00140009	9.47708e-05	0.000333093	1.07036e-05	0.00076536	5.18464e-06	5.67994e-06	0.000767875	7.15391e-05	2.08022e-05	1.92097e-05	7.6054e-05	0.000228378	1.97884e-05	1.88482e-05	7.28235e-05	7.29133e-05	3.02789e-05	0.000184592	0.000544443	6.33685e-06	6.21763e-06	1.73701e-05	7.13328e-05	3.09613e-06	1.24614e-05	6.92055e-05
36	1e-06	5.53949e-11	1.03858e-12	4.79647e-14	8.86562e-12	9.38338e-10	3.30587e-12	2.99752e-07	9.7438e-10	2.40051e-12	1.00038e-11	8.61388e-12	5.85175e-10	8.89628e-13	3.20016e-10	1.66611e-10	7.08427e-12	1.9814e-12	9.98519e-13	2.10122e-09	1.49805e-11	6.05959e-12	1.42372e-12	3.40188e-12	8.37163e-13	2.27739e-13	3.54288e-11	1.29691e-10	1.50377e-13	2.67285e-14	1.04261e-12	1.09299e-13	1.78235e-11	3.81477e-11	5.24667e-12	1.32476e-06	2.22526e-12	2.28841e-13	6.29264e-12	2.60305e-12	2.60521e-12	6.7252e-11	1.64202e-12	8.38332e-11	1.87445e-11	2.80753e-13	1.22458e-11	1.05331e-11	2.49661e-12	9.73709e-12	8.8465e-12	1.78182e-11	8.13863e-12	2.51998e-12	6.10809e-14	8.76044e-14	1.08564e-09	2.98416e-13	8.51916e-13	9.21026e-12	1.90987e-10	2e-12	9.84051e-13	1.44196e-12	1.90316e-12	9.12147e-14	7.44286e-11	2.17097e-14	2.52456e-11	1.11743e-11	6.30156e-11	1.95445e-10	2.36636e-11	1.23933e-13	4.63293e-13	3.49374e-12	1.15895e-12	3.28451e-13	4.52124e-12	6.3278e-12	1.41523e-12	1.07917e-13	6.99079e-10	6.83891e-12	2.43926e-12	8.34402e-13	7.01962e-12	5.97117e-12	2.50614e-12	1.40253e-10	1.06757e-09	7.79848e-12	2.96426e-08	1.97775e-10	6.07792e-13	2.33383e-11	1.3196e-10	7.9954e-12	3.00743e-12	4.24912e-09	3.86127e-10	4.73112e-13	1.01033e-12	1.88773e-08	9.4486e-12	5.80418e-11	2.60001e-13	1.645e-10	1.7771e-13	1.05013e-13	2.0055e-10	7.02754e-12	1.04501e-12	1.54393e-12	7.87248e-12	5.41138e-11	1.17256e-12	1.18933e-12	4.01724e-12	2.9764e-12	1.80348e-12	2.00883e-11	1.35559e-10	2.74465e-13	2.79262e-13	1.08815e-12	7.1944e-12	6.81766e-14	6.4657e-13	3.26102e-12
37	0.00797363	5.05362e-05	1.77902e-06	3.82771e-07	1.25304e-05	3.66998e-05	3.45057e-06	0.000116151	0.000222139	4.25943e-06	9.42405e-06	7.41683e-06	0.000120653	1.77408e-06	9.45578e-05	7.95363e-05	9.90473e-06	5.10107e-06	3.23053e-06	5.17144e-05	1.08043e-05	5.55658e-06	4.27755e-06	4.39822e-06	1.20082e-06	5.7711e-07	3.10181e-05	6.51811e-05	8.22793e-07	2.0916e-07	1.77885e-06	4.02207e-07	1.24591e-05	2.38624e-05	5.94511e-06	1.00032	2.84327e-06	5.78954e-07	6.94713e-06	4.56972e-06	3.57952e-06	3.79158e-05	4.76575e-06	4.4505e-05	2.06021e-05	1.33154e-06	1.10033e-05	1.29859e-05	4.45792e-06	9.22318e-06	9.58377e-06	1.2463e-05	8.43191e-06	3.51912e-06	3.98013e-07	3.94129e-07	0.000216341	8.34141e-07	1.21531e-06	1.0982e-05	7.63055e-05	2.58862e-06	1.34473e-06	3.8284e-06	2.9141e-06	4.05825e-07	5.78567e-05	1.7891e-07	1.63823e-05	1.25329e-05	3.08361e-05	6.18768e-05	1.6352e-05	6.6342e-07	1.14377e-06	7.56536e-06	2.52681e-06	8.48843e-07	6.37283e-06	6.94637e-06	2.00851e-06	6.14667e-07	0.00014743	7.40155e-06	3.67415e-06	1.20293e-06	7.42745e-06	6.59596e-06	4.45681e-06	6.00555e-05	2.92287e-05	7.56232e-06	7.91966e-06	7.87224e-05	1.00759e-06	1.63042e-05	6.54349e-05	8.46588e-06	4.09162e-06	7.52334e-05	6.1971e-05	1.05009e-06	2.41902e-06	7.40157e-07	9.97081e-06	3.46593e-05	1.12851e-06	7.95297e-05	5.47306e-07	5.98724e-07	7.97057e-05	7.51828e-06	2.19292e-06	2.02416e-06	7.99971e-06	2.38442e-05	2.08576e-06	1.98734e-06	7.65605e-06	7.64242e-06	3.18936e-06	1.93335e-05	5.65684e-05	6.69365e-07	6.5606e-07	1.83177e-06	7.49524e-06	3.27203e-07	1.3142e-06	7.26675e-06
38	0.0244879	0.000486342	1.68425e-05	3.61982e-06	0.000119723	0.00681899	3.27349e-05	0.993814	0.00215822	4.03687e-05	8.96228e-05	7.04523e-05	0.00245503	1.67867e-05	0.000916179	0.000780531	9.39988e-05	4.84166e-05	3.06212e-05	0.0156474	0.000102772	5.27574e-05	4.06857e-05	4.16979e-05	1.13736e-05	5.4595e-06	0.000330679	0.000622807	7.78231e-06	1.97739e-06	1.68412e-05	3.80312e-06	0.000118541	0.000227425	5.64052e-05	0.000172056	3.16754e-05	5.47697e-06	6.59865e-05	4.33118e-05	3.39519e-05	0.000363858	4.52644e-05	0.00042495	0.000197586	1.26241e-05	0.000104683	0.000132833	4.2286e-05	8.75906e-05	9.09357e-05	0.000118577	8.0127e-05	3.3376e-05	3.7627e-06	3.72405e-06	0.00210477	7.89403e-06	1.15112e-05	0.000104424	0.000733878	2.45439e-05	1.27394e-05	3.6354e-05	2.76241e-05	3.83465e-06	0.000555142	1.69044e-06	0.000156075	0.000120367	0.000294743	0.000594933	0.000155978	6.27983e-06	1.08259e-05	7.19541e-05	2.39368e-05	8.03309e-06	6.05201e-05	6.5982e-05	1.90347e-05	5.81694e-06	0.00143098	7.03128e-05	3.47772e-05	1.13934e-05	7.04857e-05	6.26497e-05	4.22764e-05	0.000575125	0.00992203	7.18301e-05	1.00711	0.000757172	9.53808e-06	0.000155291	0.000628448	8.034e-05	3.88115e-05	0.0151106	0.00374782	9.9383e-06	2.28965e-05	1.00059	9.46234e-05	0.000332574	1.06868e-05	0.000764172	5.17655e-06	5.67106e-06	0.000766687	7.14278e-05	2.07698e-05	1.91798e-05	7.59358e-05	0.000228025	1.97576e-05	1.88188e-05	7.27098e-05	7.2799e-05	3.02317e-05	0.000184304	0.0005436	6.32697e-06	6.20793e-06	1.7343e-05	7.12217e-05	3.0913e-06	1.24419e-05	6.90972e-05
39	0.0165557	0.000223537	7.74478e-06	1.65495e-06	5.49155e-05	0.00655438	1.51144e-05	0.0134276	0.00103112	1.85482e-05	4.13932e-05	3.25994e-05	0.0488191	7.71244e-06	0.000593425	0.00184447	4.32529e-05	2.21778e-05	1.40202e-05	0.973662	4.76672e-05	2.44018e-05	1.86046e-05	1.9211e-05	5.23691e-06	2.50491e-06	0.00283291	0.000290679	3.56057e-06	9.04208e-07	7.74437e-06	1.74238e-06	5.50189e-05	0.00010576	2.60163e-05	0.000124748	0.000622342	2.51294e-06	3.04296e-05	1.99033e-05	1.56294e-05	0.000168949	2.07154e-05	0.000198056	9.0754e-05	5.77155e-06	4.83737e-05	0.00103152	1.94211e-05	4.04763e-05	4.19648e-05	5.50253e-05	3.69722e-05	1.53624e-05	1.72122e-06	1.70557e-06	0.00109874	3.61942e-06	5.30045e-06	4.80859e-05	0.000343919	1.13074e-05	5.86793e-06	1.66462e-05	1.2707e-05	1.75627e-06	0.000256141	7.73139e-07	7.24863e-05	0.000165812	0.000137592	0.00028099	7.23145e-05	2.87221e-06	4.96655e-06	3.29613e-05	1.09887e-05	3.68468e-06	2.78364e-05	3.04291e-05	8.76308e-06	2.6604e-06	0.000686863	3.24305e-05	1.60107e-05	5.24581e-06	3.25345e-05	2.88908e-05	1.94171e-05	0.000269273	0.989805	3.31805e-05	0.00434865	0.000354689	4.38734e-06	7.20285e-05	0.000292649	3.70828e-05	1.78677e-05	0.0144926	0.00339017	4.5624e-06	1.05058e-05	0.00137724	4.36773e-05	0.000154261	4.88986e-06	0.000356017	2.37303e-06	2.59261e-06	0.00036012	3.29482e-05	9.53487e-06	8.83738e-06	3.50644e-05	0.00010673	9.08023e-06	8.65444e-06	3.3359e-05	3.3291e-05	1.38902e-05	8.50062e-05	0.00025436	2.90467e-06	2.84918e-06	7.97582e-06	3.28614e-05	1.4156e-06	5.71412e-06	3.16505e-05
40	0.00734487	4.50619e-05	1.54149e-06	3.26078e-07	1.09623e-05	7.58882e-05	3.03158e-06	0.000228871	0.000222958	3.68931e-06	8.31271e-06	6.56568e-06	0.880964	1.53263e-06	0.00224598	0.00105148	8.72812e-06	4.38796e-06	2.79533e-06	0.0106598	9.64483e-06	5.22493e-06	3.75737e-06	3.83774e-06	1.04491e-06	4.96583e-07	0.00164171	6.13742e-05	7.02421e-07	1.78197e-07	1.54148e-06	3.44507e-07	1.14389e-05	2.33057e-05	5.20937e-06	0.00117967	0.000611929	4.98176e-07	6.09195e-06	4.09746e-06	3.11828e-06	3.43598e-05	4.23399e-06	4.04539e-05	1.92186e-05	1.13787e-06	9.72491e-06	0.000953352	3.85936e-06	8.13278e-06	8.42166e-06	1.12133e-05	7.41033e-06	3.06464e-06	3.3942e-07	3.36968e-07	0.00277314	7.16741e-07	1.05772e-06	9.60577e-06	7.39935e-05	2.25879e-06	1.17159e-06	3.29176e-06	2.53156e-06	3.47e-07	5.15103e-05	1.52393e-07	1.47125e-05	0.00603137	2.82096e-05	5.89938e-05	1.46363e-05	5.66427e-07	9.84515e-07	6.52674e-06	2.44269e-06	7.30171e-07	5.54778e-06	6.09275e-06	1.74819e-06	5.24587e-07	0.000150247	6.49481e-06	3.193e-06	1.04657e-06	6.52229e-06	5.78441e-06	3.85895e-06	5.55124e-05	0.003618	6.6625e-06	5.43389e-05	7.34125e-05	8.73734e-07	1.45795e-05	5.98206e-05	7.43384e-06	3.56532e-06	0.000254428	6.84125e-05	9.05422e-07	2.0831e-06	5.35632e-06	8.75662e-06	3.13142e-05	9.65094e-07	7.28263e-05	4.6971e-07	5.10977e-07	8.72015e-05	6.59993e-06	1.89259e-06	1.76555e-06	7.03509e-06	2.19945e-05	1.80587e-06	1.72293e-06	6.61914e-06	6.57403e-06	2.76164e-06	1.70426e-05	5.25161e-05	5.76282e-07	5.65161e-07	1.5878e-06	6.58665e-06	2.79606e-07	1.13527e-06	6.26479e-06
41	0.0334711	0.00091129	3.1393e-05	6.76684e-06	0.000224092	0.000681328	6.09098e-05	0.00131631	0.00396634	7.53023e-05	0.000166844	0.000130978	0.0746076	3.12996e-05	1.01912	0.00194989	0.000175372	9.05047e-05	5.7258e-05	0.00707046	0.000190882	9.84396e-05	7.62585e-05	7.76678e-05	2.11865e-05	1.01866e-05	1.00588	0.00115628	1.4543e-05	3.69582e-06	3.13903e-05	7.10096e-06	0.000220443	0.000424077	0.000105018	1.00029	5.53091e-05	1.02192e-05	0.000122907	8.09332e-05	6.32775e-05	0.000677054	8.482e-05	0.000787921	0.000371085	2.36159e-05	0.000194848	0.000270876	7.89127e-05	0.00016295	0.000169276	0.000220271	0.000149215	6.22068e-05	7.03113e-06	6.95326e-06	1.00984	1.47363e-05	2.14424e-05	0.000194718	0.00136278	4.57185e-05	2.3727e-05	6.79784e-05	5.14971e-05	7.15972e-06	0.00103664	3.15868e-06	0.000289796	0.00637289	0.000546178	0.00109698	0.000289996	1.174e-05	2.02037e-05	0.000134575	4.49414e-05	1.49924e-05	0.000112885	0.000122897	3.54657e-05	1.08742e-05	0.00262309	0.000130957	6.47751e-05	2.12236e-05	0.000131187	0.000116692	7.88948e-05	0.0010645	0.00145881	0.000133664	0.000641072	0.00140285	1.77745e-05	0.000288522	0.00116772	0.000149528	7.23326e-05	0.00135086	0.0010976	1.85398e-05	4.27267e-05	6.82883e-05	0.000176109	0.000619171	1.99764e-05	0.00141969	9.66283e-06	1.06064e-05	0.00143431	0.000133029	3.87538e-05	3.57175e-05	0.000141309	0.000421968	3.68436e-05	3.50769e-05	0.000135815	0.000136344	5.63947e-05	0.000343598	0.00100753	1.17985e-05	1.15818e-05	3.23247e-05	0.000132634	5.77208e-06	2.32075e-05	0.000129227
42	0.00823782	9.20793e-05	1.95931e-06	4.11072e-07	2.24814e-05	0.000210138	3.87943e-06	0.000289425	0.000326204	4.95527e-06	1.06603e-05	8.42587e-06	0.0297135	1.96329e-06	0.0020474	0.000289266	2.74078e-05	5.5611e-06	1.17317e-05	0.0263356	1.2429e-05	4.16451e-05	4.09602e-05	4.89328e-06	1.33278e-06	6.32025e-07	0.00248459	0.000173537	8.86488e-07	2.24638e-07	1.95905e-06	4.35444e-07	5.31887e-05	0.000167759	6.72772e-06	0.000821323	8.02598e-06	6.31085e-07	7.78913e-06	4.49073e-05	3.97429e-06	4.52638e-05	4.70678e-05	5.25346e-05	0.000153588	1.43796e-06	1.25049e-05	0.000117135	4.90574e-06	1.04199e-05	1.18586e-05	1.81327e-05	9.48595e-06	3.95994e-06	4.28115e-07	4.2548e-07	0.00142591	9.07368e-07	1.36584e-06	1.22682e-05	0.00024942	2.88056e-06	1.49229e-06	4.17502e-06	3.22197e-06	4.38168e-07	6.96813e-05	1.92094e-07	1.91824e-05	0.953336	3.70391e-05	7.94766e-05	1.89315e-05	7.14825e-07	1.24747e-06	8.53338e-06	5.66441e-05	9.24841e-07	7.10036e-06	7.83163e-06	2.22684e-06	6.61888e-07	0.000225548	8.30682e-06	4.07117e-06	1.33232e-06	8.3409e-06	7.3956e-06	4.93936e-06	7.26516e-05	0.000227147	8.53756e-06	0.000271793	0.000100923	1.11074e-06	1.88618e-05	7.87745e-05	9.51562e-06	4.54444e-06	0.000102016	7.36767e-05	1.14813e-06	2.63913e-06	4.26328e-06	1.11999e-05	4.15753e-05	1.21926e-06	9.53236e-05	5.94263e-07	6.44925e-07	0.000533231	8.44334e-06	2.40109e-06	2.2506e-06	9.00378e-06	2.87008e-05	2.29458e-06	2.19025e-06	8.41007e-06	8.33848e-06	3.50935e-06	2.20762e-05	7.12473e-05	7.30089e-07	7.16343e-07	2.0182e-06	8.45543e-06	3.52964e-07	1.50372e-06	7.95132e-06
43	0.13365	0.187613	0.000506689	0.000109351	0.0990382	0.870154	0.00100031	1.26422	0.101086	0.00450653	0.00273503	0.00211945	0.296795	0.000749161	0.0371198	1.08981	0.188588	0.00148683	0.174391	0.0535951	0.00312092	0.272555	1.03896	0.0012525	0.000352165	0.000311825	0.0122063	0.315206	0.000234869	5.96142e-05	0.000504413	0.000114191	1.04543	0.740014	0.00212101	0.0322764	0.000812299	0.000164259	0.00200026	1.08516	0.00102627	0.0133898	0.943613	0.0130304	1.01432	0.000402564	0.0032593	0.900706	0.00128617	0.0026442	0.00935334	0.016924	0.00243941	0.00175912	0.000113294	0.000111487	1.12406	0.000237654	0.00071443	0.00320234	0.685591	0.000737934	0.00038146	0.00117189	0.000832563	0.000114832	0.0318594	5.07705e-05	0.00627315	0.04024	0.0105163	0.0222252	0.00486832	0.000190605	0.000325732	0.00522385	0.738802	0.000241629	0.00227966	0.00263523	0.000571637	0.00017634	0.0730438	0.00213454	0.00109968	0.000341957	0.00212511	0.0019004	0.00166363	0.0179185	0.171583	0.00217981	0.737363	0.0349208	0.000285306	0.00517909	0.0222605	0.00246318	0.00117229	0.0379199	0.018133	0.000298447	0.000689741	0.0011071	0.00285738	0.0136838	0.000324561	0.0252473	0.00015544	0.000172882	0.844485	0.00217034	0.000626525	0.000577862	0.00229521	0.0070794	0.000594586	0.000564506	0.00223182	0.00229037	0.000914585	0.0068717	0.0218078	0.000188593	0.00018629	0.000519497	0.00256542	9.25143e-05	0.00110508	0.00214092
44	0.233066	0.231145	0.00153812	0.000336727	0.995845	0.210641	0.0030013	0.541321	0.230368	1.59618	0.00835789	0.00642446	0.998993	1.1587	0.0930334	0.0106869	1.31	0.00463877	0.178471	0.0617063	0.00940146	0.762438	0.0238739	0.00381659	0.00104654	1.00748	0.0342644	0.939635	0.000722296	0.00018327	0.00153579	0.000349274	0.0128787	0.291558	0.00559491	0.043458	0.00248384	0.000501409	0.00612419	0.593316	0.00313734	0.0381273	0.613862	0.0392859	0.0354568	0.00122088	0.00983527	0.397704	0.00395765	0.00803441	1.35225	1.02087	0.00745522	1.03324	0.000347714	0.000340308	1.34443	0.000728315	1.00757	0.00989532	0.671934	0.0022479	0.00115925	0.0035516	0.00254645	0.000350483	0.0715811	0.000155485	1.10252	1.06499	1.31234	0.0587849	0.0147405	0.000589745	0.000997382	1.06802	0.272304	0.000739547	1.22478	1.0442	0.00174167	0.00054488	0.156721	0.00653112	0.00320649	0.00103745	0.00645857	0.00581509	0.00433847	0.0536522	0.904099	0.00661124	0.299712	0.0840741	0.000867163	0.014796	0.0645644	0.00740307	0.00358607	0.086881	0.0547353	0.000911295	0.00211338	0.00340013	0.00866931	0.0360801	0.00100336	0.0767332	0.000475267	0.0005362	0.243669	0.00663778	0.00191988	0.00174911	0.0069653	0.0210401	0.00181713	0.00171899	0.00693542	0.00728951	0.0028058	0.0188795	0.0568603	0.000572521	0.0005688	0.0015817	0.00702849	0.000282311	1.00146	0.00672679
45	0.0109479	0.137916	8.86201e-06	8.0209e-07	0.00246816	0.00603949	3.19798e-05	0.0193861	0.0102037	0.000895576	4.85004e-05	3.29636e-05	0.0504066	0.000239273	0.00401731	0.00234362	0.0104997	1.49806e-05	0.744872	0.000840238	6.83429e-05	0.00194581	0.00393458	1.50122e-05	1.53776e-05	0.000148289	0.00246054	0.058907	1.81181e-06	4.35401e-07	5.34008e-06	9.57302e-07	0.000622404	0.00751756	0.00053516	0.046773	9.04921e-06	1.51637e-06	2.78053e-05	0.0121371	1.38406e-05	0.001201	0.0748349	0.000330112	0.00728066	7.88594e-05	9.4403e-05	0.0150153	1.83961e-05	4.47366e-05	0.00115382	0.00351048	4.12364e-05	0.000640927	8.52013e-07	8.87526e-07	0.0206111	2.11337e-06	0.000364739	4.90882e-05	0.025036	9.20946e-06	4.49457e-06	0.000158524	9.35098e-06	1.04688e-06	0.00981581	3.71886e-07	0.000796703	0.00271647	0.000949118	0.00204106	0.000120054	1.46876e-06	3.00767e-06	0.00114205	0.00254448	2.30764e-06	0.000338266	0.000595043	6.63813e-06	1.42117e-06	0.00831482	3.26976e-05	0.000110025	6.02174e-06	3.47966e-05	2.87922e-05	0.000977732	0.000543574	0.00833564	4.32298e-05	0.0101802	0.00571123	3.08953e-06	0.000901807	0.00169922	8.20181e-05	1.46328e-05	0.00694957	0.000444896	3.30711e-06	8.17233e-06	1.19245e-05	5.11369e-05	0.00251056	2.60132e-06	0.0011039	1.37459e-06	1.64027e-06	0.015037	3.3983e-05	7.33596e-06	1.12915e-05	4.09947e-05	0.000227311	6.90531e-06	6.62185e-06	2.90918e-05	2.67457e-05	1.13114e-05	0.00131319	0.00210591	1.75153e-06	1.76171e-06	5.54145e-06	0.00131178	7.41962e-07	0.000702599	2.11333e-05
46	0.184335	0.404995	0.000968794	0.000209708	0.884046	1.32094	1.06094	0.438852	0.148023	0.0170766	0.00528498	0.00408867	0.0398397	0.000963658	0.0580655	0.0184394	0.859652	0.0028818	0.00924033	0.0395146	0.00599597	0.0452208	0.011209	0.00241192	0.997913	0.00031389	0.0201499	0.727682	0.000450525	0.000114227	0.000968322	0.000218722	0.0040162	0.741394	0.00336432	0.0570199	0.00156419	0.000314891	0.00386738	0.0490162	0.00199579	0.0234223	0.79062	0.0251962	0.016575	0.00594232	0.00926046	1.02915	0.00248002	0.00509624	0.0335193	0.0374697	0.00470825	0.00194942	0.000216997	0.00021315	0.06493	0.000456254	0.000662284	0.00620825	0.184275	0.00142066	0.000732877	0.00219424	0.00160376	0.00273794	1.03977	9.70871e-05	0.00925464	0.0147739	0.0176796	1.07031	1.15865	0.000366734	0.00062553	0.0224512	0.739568	0.00046375	1.06017	1.05946	0.00109973	0.000338982	0.955045	0.00412424	0.00200106	0.000655106	0.00409005	0.00367157	0.00575294	0.0345512	0.247876	0.00418906	0.0714689	1.36143	0.000547306	0.00923661	0.0401528	0.00467163	0.0022603	0.138787	0.0351668	0.000572596	0.0013243	0.00213512	0.00548992	0.0217541	0.000624778	1.18016	0.000297908	0.000332998	0.143055	0.00419167	0.00120449	0.00110484	0.00441166	0.0135463	0.00114312	0.00108359	0.00432431	0.00448578	0.0017612	0.0114017	0.979506	0.000360572	0.000357343	0.000997377	1.02046	0.00017681	0.000720575	0.00417096
47	0.0253895	0.00457709	1.88788e-05	3.9237e-06	0.315408	0.000471603	4.44051e-05	0.00123548	0.0033422	0.00189991	0.00010425	8.23651e-05	8.14097e-05	1.8703e-05	0.00124472	0.00429474	0.00265935	5.35806e-05	7.12161e-05	0.000836028	0.000122146	0.000209808	0.000223643	4.73915e-05	2.43931e-05	6.03698e-06	0.00035069	0.33761	8.47252e-06	2.14337e-06	1.88797e-05	4.16706e-06	7.22321e-05	0.00135628	6.48517e-05	0.000295056	3.03667e-05	6.05658e-06	7.58208e-05	0.000277026	0.00323802	0.000449613	0.0086365	0.000522703	0.0111005	0.00152205	0.919576	0.00217796	4.73864e-05	0.000101619	0.00243771	0.00193959	9.2489e-05	3.7821e-05	4.08719e-06	4.06413e-06	0.00099647	8.70487e-06	1.30066e-05	0.000119384	0.00150915	2.79108e-05	1.44249e-05	1.00292	3.11447e-05	0.000176764	0.00083906	1.83174e-06	0.000187821	0.431356	0.000367454	0.00105357	0.000197612	6.83648e-06	1.19796e-05	0.00195459	0.000368855	8.87741e-06	7.48091e-05	7.88643e-05	2.15366e-05	6.32736e-06	0.00318233	8.09035e-05	3.92129e-05	1.28661e-05	8.11101e-05	7.2007e-05	3.45966e-06	0.000730494	0.00602332	8.32821e-05	0.000675079	0.00114336	1.07079e-05	0.00018562	0.000788539	9.24661e-05	4.40284e-05	0.00656493	0.00073289	1.10354e-05	2.53382e-05	4.10765e-05	0.000108916	0.000413124	1.16803e-05	0.00103024	5.69416e-06	6.17349e-06	0.147698	8.22577e-05	2.31063e-05	2.17666e-05	8.76379e-05	0.000286874	2.21229e-05	2.11175e-05	8.1297e-05	8.07252e-05	3.38579e-05	0.000215382	0.00104128	7.00059e-06	6.88076e-06	1.94536e-05	8.87797e-05	3.37022e-06	1.38638e-05	7.68819e-05
48	0.0158499	0.000251521	7.03184e-06	1.51394e-06	5.55654e-05	7.93564e-05	1.36393e-05	5.50804e-05	0.000880415	9.04277e-05	3.72842e-05	2.93196e-05	2.01436e-05	7.01201e-06	0.000374097	1.00465	0.000210535	2.01972e-05	2.34425e-05	0.000271091	4.27145e-05	5.50833e-05	7.70125e-05	1.73879e-05	4.74606e-06	2.28139e-06	0.000123332	0.000374296	3.2541e-06	8.27146e-07	7.0312e-06	1.59012e-06	2.69623e-05	9.93982e-05	2.35051e-05	8.16376e-05	1.12432e-05	2.28868e-06	2.74798e-05	7.06268e-05	1.3708e-05	0.000150377	0.000861636	0.000176045	0.000125461	9.56708e-06	4.35466e-05	0.000429254	1.76378e-05	3.64661e-05	3.98997e-05	0.00011271	3.33553e-05	1.39169e-05	1.57387e-06	1.55784e-06	0.000306396	3.29838e-06	4.80334e-06	4.34697e-05	0.0002556	1.02343e-05	5.31491e-06	1.5162e-05	1.15234e-05	6.2471e-06	0.000229728	7.07339e-07	6.47897e-05	2.08296e-05	0.000121987	0.000244783	6.47221e-05	2.62473e-06	4.52248e-06	3.97547e-05	1.59635e-05	3.35624e-06	2.52185e-05	2.74769e-05	7.94036e-06	2.43164e-06	0.000583554	2.92779e-05	1.45183e-05	4.7544e-06	2.93644e-05	2.60905e-05	1.06504e-06	0.000237618	0.000345464	2.99038e-05	0.000129483	0.000311973	3.98224e-06	6.44907e-05	0.000259457	3.34698e-05	1.61813e-05	0.000463816	0.000245146	4.15142e-06	9.56454e-06	1.52708e-05	3.94196e-05	0.000137486	4.46521e-06	0.000315372	2.16376e-06	2.36957e-06	0.000316193	2.974e-05	8.67197e-06	8.00043e-06	3.16275e-05	9.42963e-05	8.24694e-06	7.8558e-06	3.03113e-05	3.0311e-05	1.26144e-05	7.65798e-05	0.000224147	2.64494e-06	2.59359e-06	7.24038e-06	2.96495e-05	1.29328e-06	5.19579e-06	1.00613
49	1e-06	1.39986e-09	3.54403e-12	1.50074e-13	5.63003e-08	7.21052e-11	1.21564e-11	1.04294e-10	3.87393e-09	3.03392e-10	3.51607e-11	3.02137e-11	7.15881e-12	3.01608e-12	1.17649e-09	3.51681e-06	8.39979e-10	6.69975e-12	9.70072e-12	5.89139e-10	5.29872e-11	7.46369e-11	1.05265e-10	1.17191e-11	4.16478e-12	7.67625e-13	1.12397e-10	1.66261e-07	4.86374e-13	8.35313e-14	3.5583e-12	3.62028e-13	1.09374e-11	4.32744e-10	1.82079e-11	1.13661e-10	6.29755e-12	7.71397e-13	2.1891e-11	7.07995e-11	1.09292e-08	2.43238e-10	6.22746e-09	2.98903e-10	4.65709e-08	1.59684e-10	1.20457e-08	1.11763e-09	8.5482e-12	3.40118e-11	3.60462e-10	5.00221e-10	2.83913e-11	8.6937e-12	1.94852e-13	2.85592e-13	5.80793e-10	1.00044e-12	2.9251e-12	3.19322e-11	7.70547e-10	6.91089e-12	3.38367e-12	3.95875e-11	6.54111e-12	4.46825e-12	2.95735e-10	6.77525e-14	9.00133e-11	6.51806e-09	2.2721e-10	8.0963e-10	8.70813e-11	3.99299e-13	1.56095e-12	2.28219e-10	3.11404e-11	1.10514e-12	1.61019e-11	2.22891e-11	4.87334e-12	3.46229e-13	3.37706e-09	2.38088e-11	8.33994e-12	2.86357e-12	2.43716e-11	2.08615e-11	5.6281e-14	5.07618e-10	3.05348e-09	2.72712e-11	3.43379e-10	7.80172e-10	2.08344e-12	8.28008e-11	4.78016e-10	2.77226e-11	1.03822e-11	2.40751e-09	4.37531e-10	1.60271e-12	3.38783e-12	7.81681e-12	3.28198e-11	2.13037e-10	8.55552e-13	6.10909e-10	5.9346e-13	3.40181e-13	3.2236e-07	2.44869e-11	3.54418e-12	5.31199e-12	2.73953e-11	1.95803e-10	4.00716e-12	4.06223e-12	1.3723e-11	1.01424e-11	6.1584e-12	7.09465e-11	6.20269e-10	9.23085e-13	9.44292e-13	3.71563e-12	2.5567e-11	2.21422e-13	2.19893e-12	5.9842e-08
50	0.0421063	0.00572124	5.05097e-05	1.07541e-05	0.733408	0.000836082	0.000105807	0.00149924	0.00734652	0.00231716	0.000272663	0.000214316	0.000173291	5.02376e-05	0.00293621	0.00657963	0.00363117	0.00014515	0.000177846	0.00206128	0.000314451	0.000458466	0.000571239	0.000125672	4.57479e-05	1.63047e-05	0.000920845	0.831373	2.31491e-05	5.87266e-06	5.05078e-05	1.13267e-05	0.000194935	0.0018058	0.000170708	0.000666548	8.10384e-05	1.63572e-05	0.000199844	0.00059998	1.00629	0.00113693	0.0125732	0.00131729	1.01126	0.00156651	0.0820255	0.00416049	0.000127078	0.00026586	0.00261859	0.00245779	0.000243078	0.000100567	1.11804e-05	1.10718e-05	0.00240082	2.35687e-05	3.4607e-05	0.000316208	0.00266747	7.39932e-05	3.83272e-05	0.00420576	8.30815e-05	0.000205391	0.0018955	5.01704e-06	0.000480007	0.736397	0.000918318	0.00216227	0.000490609	1.86953e-05	3.23554e-05	0.00213665	0.000441249	2.39966e-05	0.000188874	0.00020289	5.72821e-05	1.73093e-05	0.00582189	0.000213055	0.000104429	3.42461e-05	0.000213326	0.000189755	8.26914e-06	0.00180434	0.00759173	0.000218044	0.00125888	0.00256405	2.86123e-05	0.000476616	0.00197328	0.000243167	0.000116991	0.00872533	0.00183964	2.97251e-05	6.84309e-05	0.000109983	0.000286406	0.00104176	3.18607e-05	0.00247164	1.54365e-05	1.68946e-05	0.859404	0.000216503	6.22002e-05	5.77482e-05	0.000230059	0.000712239	5.92733e-05	5.64651e-05	0.000218672	0.000219214	9.07657e-05	0.000563182	0.0020614	1.8881e-05	1.85558e-05	5.20234e-05	0.000222649	9.18717e-06	3.72607e-05	0.000207895
51	0.146498	0.922875	0.000615848	0.000132005	0.890945	0.17991	0.00690856	1.06867	0.103576	1.01545	0.00336993	0.00261837	0.0377509	0.000612112	0.0390868	1.10925	0.578709	0.00181111	0.00793957	0.0256677	0.00385266	0.0422589	0.00729111	0.0015356	0.00816323	0.000198874	0.0127693	1.61661	0.000283935	7.19476e-05	0.0006154	0.000138268	0.0025531	0.283003	0.00217772	0.0518897	0.000993175	0.000199505	0.00246146	0.0447697	0.00454616	0.0151025	0.842507	0.0162619	0.0218921	1.00041	0.0827845	0.247697	0.00156927	0.00325625	0.976002	1.09048	0.00299898	0.00124113	0.000136812	0.000134766	0.0473491	0.000288511	0.000421823	0.00393337	0.169045	0.000904602	0.000466759	0.00559363	0.00101838	1.0115	0.075541	6.12369e-05	0.00596991	0.887393	0.0114665	0.0702019	0.011801	0.000230601	0.000395904	0.996988	0.270661	0.000293487	0.00831965	0.00636922	0.000699705	0.000213225	0.153451	0.00262557	0.00127935	0.000417107	0.00261002	0.00233697	0.0056652	0.0224188	0.812992	0.00267643	0.0648115	0.0651835	0.000348114	0.00596041	0.0259244	0.00298454	0.00143638	0.981494	0.0227164	0.00036295	0.00083784	0.00135272	0.00350454	0.0141965	0.000393229	0.0557633	0.000188469	0.000209174	0.108903	0.00266894	0.00076265	0.000704171	0.00281694	0.00879394	0.000725281	0.000688639	0.00272557	0.00279868	0.00111573	0.00733082	0.0736998	0.000228946	0.000226463	0.000633921	0.010603	0.000111784	0.000457862	0.00261674
52	0.0753306	0.649603	0.000175477	3.49156e-05	0.239958	0.0525419	0.00588354	0.17361	0.0580983	0.0125948	0.00098337	0.000762184	0.8319	0.000175371	0.0211379	0.0126806	0.538125	0.00048814	0.0810588	0.00866443	0.00117085	0.706539	0.00450852	0.000430808	0.0078287	5.44659e-05	0.00752897	0.467514	7.55316e-05	1.90489e-05	0.00017018	3.71828e-05	0.00612889	0.0329721	0.00143647	0.959606	0.000275511	5.42641e-05	0.000699633	0.418102	0.000371621	0.00662076	0.940248	0.00510902	0.00648916	0.00519603	0.00412242	0.20523	0.000437427	0.000946581	0.0238737	0.0253194	0.000867877	0.000449647	3.63523e-05	3.61227e-05	0.0942325	7.80032e-05	0.000124004	0.00111492	0.844111	0.000254529	0.000130721	0.00056976	0.000282727	0.00251399	0.0398292	1.62522e-05	0.00252996	0.00908878	0.00420062	0.0490574	0.00734321	6.10945e-05	0.000107518	0.0169542	0.0110471	7.97445e-05	0.00645132	0.00449896	0.000195476	5.65754e-05	0.0913164	0.000751779	0.00050199	0.000119262	0.00075322	0.000667562	1.0031	0.00737007	0.0855721	0.000789732	0.215613	0.037628	9.65697e-05	0.00293807	0.0106541	0.000932475	0.000402589	0.0834449	0.00712703	9.9643e-05	0.000229689	0.000372626	0.00101969	0.0085764	0.00010468	0.0326837	5.09347e-05	5.56808e-05	0.085441	0.000766373	0.000209732	0.000204562	0.000821288	0.0029052	0.000200679	0.000191437	0.000750411	0.000750875	0.000309095	0.00415531	0.0535691	6.25265e-05	6.17453e-05	0.000175431	0.00702057	2.99517e-05	0.000153909	0.000704104
53	1e-06	8.9483e-06	2.3686e-08	1.5693e-10	7.94906e-07	3.49918e-06	8.79459e-09	3.39679e-06	4.37493e-06	3.06995e-08	5.1496e-08	8.87987e-09	1.06192e-06	1.02248e-09	3.12767e-06	4.04833e-08	5.29159e-07	1.43553e-08	8.29612e-07	3.07711e-07	4.7261e-08	7.855e-06	9.43025e-08	3.22837e-09	1.1493e-09	2.45608e-10	1.25265e-05	2.25611e-06	1.75176e-10	2.07309e-11	9.67994e-10	1.45039e-10	1.52082e-07	7.63715e-07	2.41053e-06	3.64047e-06	1.85699e-09	2.08054e-10	1.10647e-08	8.11088e-07	1.22347e-08	1.92191e-06	4.55487e-06	1.90318e-07	1.22148e-07	2.26007e-08	3.80013e-08	3.39708e-06	4.52321e-08	8.77202e-08	6.58253e-08	1.16098e-07	3.15027e-08	1.06939e-08	5.63995e-11	7.96157e-11	2.35154e-06	2.61063e-10	9.88505e-10	6.17327e-08	3.60929e-06	3.53541e-09	1.12797e-09	1.86368e-06	1.99082e-09	8.39199e-11	3.39068e-06	1.64832e-11	9.23018e-08	4.1498e-08	1.57506e-07	2.56655e-07	2.96883e-08	4.68801e-10	4.12345e-10	6.04235e-08	2.20898e-07	1.51317e-09	1.05392e-08	9.47936e-09	1.424e-09	1.85801e-09	9.22924e-07	2.64853e-08	5.90413e-07	2.6356e-08	4.29214e-08	4.13786e-08	8.35266e-08	2.27656e-07	1.5239e-06	5.73677e-08	1.55834e-06	2.90024e-06	5.7084e-10	6.6128e-06	3.44051e-06	2.85515e-07	6.18189e-09	1.88226e-06	1.8601e-07	1.15136e-08	2.49738e-08	3.22571e-09	6.63076e-08	7.26956e-06	2.47712e-10	3.52235e-07	3.19532e-10	8.27798e-09	3.48212e-06	2.30807e-08	1.64806e-08	2.57471e-08	4.41804e-08	1.65381e-07	1.56974e-08	8.46385e-09	5.4472e-08	5.35506e-08	2.42742e-08	4.85959e-06	2.82525e-07	2.2731e-10	2.58118e-10	1.06262e-09	3.71674e-07	3.63811e-10	1.43237e-09	8.2096e-09
54	1e-06	2.3259e-13	2.84784e-14	6.03558e-15	2.00756e-13	1.32921e-12	5.58676e-14	8.85496e-13	3.6689e-12	6.80909e-14	1.53002e-13	1.20848e-13	1.2984e-12	2.8328e-14	6.34413e-12	1.32897e-12	1.59034e-13	8.10374e-14	9.41113e-14	1.15628e-12	1.77233e-13	9.03226e-14	3.20565e-13	7.08114e-14	1.92897e-14	9.18299e-15	2.24796e-12	2.38456e-13	1.29989e-14	3.29874e-15	2.84778e-14	6.37444e-15	2.0456e-13	4.18391e-13	1.13506e-13	2.77124e-13	4.5587e-14	9.21252e-15	1.12265e-13	1.38775e-13	5.75355e-14	5.89508e-12	1.06049e-12	3.06787e-12	4.55664e-13	2.10349e-14	1.78916e-13	1.163e-12	7.12549e-14	1.4977e-13	1.55008e-13	2.04619e-13	1.36501e-13	5.65447e-14	6.2831e-15	6.2377e-15	4.80206e-12	3.6869e-13	1.95248e-14	1.76972e-13	2.2811e-13	4.16768e-14	2.16242e-14	9.53301e-14	4.67343e-14	6.42329e-15	4.53275e-13	2.82188e-15	2.69872e-13	1.30121e-13	5.15897e-13	1.06625e-12	2.68538e-13	1.04778e-14	1.82013e-14	1.20389e-13	6.44387e-14	1.35008e-14	1.0231e-13	1.1227e-13	3.227e-14	9.70526e-15	1.35839e-11	1.19673e-13	5.89775e-14	1.93216e-14	1.20211e-13	1.06587e-13	7.12419e-14	7.18983e-12	4.82499e-13	1.22711e-13	5.97882e-13	3.02936e-12	1.61407e-14	1.05801e-13	2.6567e-12	2.45391e-13	6.57812e-14	2.25515e-13	1.0341e-12	1.67375e-14	3.8506e-14	6.1782e-14	1.61387e-13	3.66888e-13	1.78485e-14	2.38437e-13	8.68866e-15	9.45062e-15	9.45397e-12	1.216e-13	3.49716e-14	3.2581e-14	1.29624e-13	4.00903e-13	3.3358e-14	3.18262e-14	1.22164e-13	5.779e-13	5.09969e-14	2.01503e-13	9.54998e-13	1.06601e-14	1.04491e-14	2.93321e-14	2.40627e-13	5.17635e-15	2.09735e-14	1.15596e-13
55	1e-06	2.3259e-13	2.84784e-14	6.03558e-15	2.00756e-13	1.32921e-12	5.58676e-14	8.85496e-13	3.6689e-12	6.80909e-14	1.53002e-13	1.20848e-13	1.2984e-12	2.8328e-14	6.34413e-12	1.32897e-12	1.59034e-13	8.10374e-14	9.41113e-14	1.15628e-12	1.77233e-13	9.03226e-14	3.20565e-13	7.08114e-14	1.92897e-14	9.18299e-15	2.24796e-12	2.38456e-13	1.29989e-14	3.29874e-15	2.84778e-14	6.37444e-15	2.0456e-13	4.18391e-13	1.13506e-13	2.77124e-13	4.5587e-14	9.21252e-15	1.12265e-13	1.38775e-13	5.75355e-14	5.89508e-12	1.06049e-12	3.06787e-12	4.55664e-13	2.10349e-14	1.78916e-13	1.163e-12	7.12549e-14	1.4977e-13	1.55008e-13	2.04619e-13	1.36501e-13	5.65447e-14	6.2831e-15	6.2377e-15	4.80206e-12	3.6869e-13	1.95248e-14	1.76972e-13	2.2811e-13	4.16768e-14	2.16242e-14	9.53301e-14	4.67343e-14	6.42329e-15	4.53275e-13	2.82188e-15	2.69872e-13	1.30121e-13	5.15897e-13	1.06625e-12	2.68538e-13	1.04778e-14	1.82013e-14	1.20389e-13	6.44387e-14	1.35008e-14	1.0231e-13	1.1227e-13	3.227e-14	9.70526e-15	1.35839e-11	1.19673e-13	5.89775e-14	1.93216e-14	1.20211e-13	1.06587e-13	7.12419e-14	7.18983e-12	4.82499e-13	1.22711e-13	5.97882e-13	3.02936e-12	1.61407e-14	1.05801e-13	2.6567e-12	2.45391e-13	6.57812e-14	2.25515e-13	1.0341e-12	1.67375e-14	3.8506e-14	6.1782e-14	1.61387e-13	3.66888e-13	1.78485e-14	2.38437e-13	8.68866e-15	9.45062e-15	9.45397e-12	1.216e-13	3.49716e-14	3.2581e-14	1.29624e-13	4.00903e-13	3.3358e-14	3.18262e-14	1.22164e-13	5.779e-13	5.09969e-14	2.01503e-13	9.54998e-13	1.06601e-14	1.04491e-14	2.93321e-14	2.40627e-13	5.17635e-15	2.09735e-14	1.15596e-13
56	0.0983086	0.00223246	0.000271458	5.88541e-05	0.00200312	1.0901	0.000526626	0.00872975	0.0312543	0.000654575	0.00145274	0.0011329	0.0123108	0.000270555	0.171479	0.0127137	0.00152694	0.00079415	0.000928026	0.0105703	0.0016518	0.000848501	0.0029944	0.000672481	0.000183072	8.81836e-05	1.08896	0.00228872	0.000126405	3.21055e-05	0.000271437	6.1526e-05	0.00190505	0.00386546	0.00108008	0.00259144	0.000435928	8.84661e-05	0.0010688	0.00136907	0.000549412	1.01778	0.00969892	1.21437	0.00420433	0.000207054	0.00169729	0.0112545	0.000687821	0.00141158	0.00146542	0.00190564	0.00129824	0.000540058	6.10323e-05	6.01457e-05	1.0323	1.00659	0.000185285	0.00170341	0.00218948	0.000395954	0.000205042	0.000908415	0.000446836	6.19336e-05	0.00459774	2.73786e-05	0.00251461	0.00124826	0.00482038	0.00952324	0.0025332	0.000102379	0.000175236	0.0011881	0.000622078	0.000130004	0.000985375	0.00106876	0.000307057	9.47575e-05	0.875328	0.00113899	0.000558668	0.000183392	0.00113598	0.00101471	0.000687692	1.00996	0.00459136	0.001159	0.00553409	1.03328	0.00015356	0.000993464	1.0306	0.00236609	0.000628085	0.0021646	0.00953503	0.000160577	0.000370615	0.000593746	0.00152483	0.00349727	0.000174268	0.00228874	8.37169e-05	9.27195e-05	1.03079	0.00115712	0.000336461	0.000308683	0.0012238	0.00365671	0.000319429	0.000303464	0.00119054	0.00564462	0.000490222	0.00193057	0.00886394	0.000101771	0.000100291	0.000279525	0.00222899	4.99191e-05	0.000201076	0.00114012
57	0.013408	4.14408e-05	5.06729e-06	1.0845e-06	3.58581e-05	0.000199418	9.87734e-06	0.000157202	0.000681922	1.83244e-05	2.70353e-05	2.12917e-05	0.000226613	5.04766e-06	0.0776452	0.000233832	2.82736e-05	1.45112e-05	1.68518e-05	0.000435966	7.5721e-05	1.59346e-05	5.61955e-05	1.25602e-05	3.4253e-06	1.64002e-06	0.000147212	4.23669e-05	2.33273e-06	5.92562e-07	5.06698e-06	1.14129e-06	3.59005e-05	7.29423e-05	2.00945e-05	4.86803e-05	8.1083e-06	1.64528e-06	1.9883e-05	2.48046e-05	1.02191e-05	0.00702873	0.000183719	0.000667845	7.93756e-05	3.77922e-06	3.15897e-05	0.000207416	1.2703e-05	2.64419e-05	2.74238e-05	3.59111e-05	2.41531e-05	1.0045e-05	1.12789e-06	1.11749e-06	0.00100768	2.36999e-06	3.46681e-06	3.14176e-05	4.05315e-05	7.39294e-06	3.83758e-06	1.68981e-05	8.31068e-06	1.15069e-06	8.1825e-05	5.06734e-07	4.73012e-05	2.3108e-05	9.15447e-05	0.000221585	1.00384	1.92813e-06	3.25124e-06	2.42404e-05	1.14929e-05	2.41231e-06	1.92477e-05	1.98824e-05	5.73084e-06	1.74284e-06	0.0946029	2.1189e-05	1.04735e-05	3.43116e-06	2.12599e-05	1.88796e-05	1.27002e-05	0.00368779	8.46619e-05	2.16758e-05	0.000104242	0.00677378	2.87065e-06	1.86593e-05	0.00442902	5.02684e-05	2.68591e-05	4.54612e-05	0.000217719	2.98638e-06	6.87702e-06	1.10036e-05	2.85412e-05	6.45409e-05	3.20239e-06	4.27281e-05	1.55404e-06	1.69815e-06	0.00149339	2.15269e-05	6.23979e-06	5.77884e-06	2.29107e-05	6.95841e-05	5.94085e-06	5.662e-06	2.39604e-05	0.406446	9.0865e-06	3.57145e-05	0.00018931	1.90193e-06	1.86517e-06	5.25262e-06	4.21091e-05	9.27563e-07	3.73977e-06	2.07009e-05
58	1e-06	5.56946e-13	5.686e-14	6.28514e-15	5.21739e-13	2.94472e-11	2.08453e-13	4.73042e-12	4.03029e-10	6.03268e-13	6.80722e-13	5.89222e-13	1.5564e-11	4.79703e-14	3.39548e-10	1.59792e-11	3.56594e-13	1.17124e-13	1.47063e-13	9.80993e-11	9.58397e-12	3.99569e-13	2.28322e-12	1.87478e-13	4.88415e-14	1.38584e-14	8.62719e-11	5.59932e-13	1.41191e-14	3.4427e-15	5.7137e-14	7.97779e-15	1.38189e-12	4.55508e-12	4.0701e-13	1.73304e-12	1.03043e-13	1.39191e-14	3.75147e-13	2.66693e-13	1.49243e-13	7.86227e-11	1.5168e-11	2.79764e-11	5.16186e-12	2.35817e-14	8.55718e-13	1.36876e-11	1.36113e-13	6.35703e-13	5.23152e-13	1.37992e-12	4.97894e-13	1.43691e-13	6.65431e-15	7.06738e-15	4.99357e-12	1.84636e-14	4.97598e-14	5.40495e-13	5.33461e-13	1.14854e-13	5.79625e-14	2.93819e-13	1.07088e-13	7.29826e-15	1.09965e-12	2.92997e-15	2.1606e-12	3.546e-13	6.16002e-12	1.40982e-09	2.07222e-12	1.19718e-12	2.72641e-14	1.31664e-10	1.16431e-13	1.99014e-14	8.63922e-12	3.80808e-13	7.993e-14	1.05529e-14	7.94223e-10	4.09826e-13	1.27359e-13	4.85284e-14	4.19789e-13	3.90746e-13	1.36689e-13	5.54937e-10	4.36162e-12	4.98937e-13	6.65336e-12	6.93835e-12	3.61862e-14	4.66296e-13	5.66442e-12	1.76203e-10	1.87777e-12	2.79656e-10	2.3644e-06	2.74172e-14	5.78018e-14	1.27012e-13	5.68757e-13	2.79803e-12	2.03812e-14	3.48397e-09	1.16699e-14	1.02269e-14	6.46314e-11	4.26365e-13	5.90378e-14	8.93972e-14	4.86701e-13	6.28882e-12	6.60612e-14	6.47389e-14	2.98366e-13	7.29526e-12	1.00615e-13	7.0481e-13	6.01206e-07	1.57964e-14	1.65603e-14	2.411e-12	2.17254e-12	5.78144e-15	3.69621e-14	1.26381e-09
59	0.0244718	0.000136637	1.67689e-05	3.61291e-06	0.000119111	0.000632689	3.25266e-05	0.000516786	0.000706497	4.01964e-05	8.90008e-05	6.99275e-05	0.000737821	1.67208e-05	0.00204519	0.000754803	9.35208e-05	4.8255e-05	5.605e-05	0.000647193	0.000101884	5.23843e-05	0.000183805	4.14734e-05	1.13171e-05	5.44118e-06	0.000439113	0.000140075	7.76505e-06	1.97359e-06	1.67674e-05	3.79287e-06	0.000117489	0.000237231	6.62567e-05	0.000159477	2.68243e-05	5.45858e-06	6.55838e-05	8.24077e-05	3.37772e-05	0.000359941	0.000593988	0.000515099	0.000257958	1.2594e-05	0.000103928	0.000660698	4.2106e-05	8.69872e-05	9.03735e-05	0.000117525	7.96125e-05	3.32063e-05	3.75495e-06	3.715e-06	0.000550626	7.86911e-06	1.14537e-05	0.000103824	0.000134011	2.44118e-05	1.26737e-05	5.5774e-05	2.7493e-05	3.82529e-06	0.000268233	1.68725e-06	0.000154597	7.63802e-05	0.000291169	0.00133799	0.000154573	3.4044e-05	1.07889e-05	9.4828e-05	3.8106e-05	8.00646e-06	4.51253e-05	6.55775e-05	1.89392e-05	5.80425e-06	0.00139358	6.98769e-05	3.46106e-05	1.1337e-05	7.00417e-05	6.22677e-05	4.20959e-05	0.000538432	0.000276961	7.1344e-05	0.000339035	0.000264772	9.49544e-06	6.133e-05	0.000220649	9.25511e-05	3.86102e-05	0.00111223	1.00502	9.90197e-06	2.28167e-05	3.64435e-05	9.4026e-05	0.000211614	1.06603e-05	1.00984	5.16112e-06	5.65867e-06	0.00117524	7.09808e-05	2.06909e-05	1.90777e-05	7.54417e-05	0.000224992	1.96735e-05	1.87352e-05	7.24136e-05	7.25541e-05	3.01024e-05	0.000117868	0.000352376	6.30526e-06	6.18606e-06	5.44124e-05	0.000137384	3.08403e-06	1.23937e-05	1.00286
60	0.00812552	1.50259e-05	1.84745e-06	3.975e-07	1.30134e-05	6.95824e-05	3.5833e-06	5.64046e-05	7.73195e-05	4.42332e-06	9.78673e-06	7.70214e-06	8.07441e-05	1.84232e-06	0.000224651	8.26009e-05	1.02859e-05	5.29746e-06	6.14459e-06	7.11508e-05	1.122e-05	5.77033e-06	2.02179e-05	4.56742e-06	1.247e-06	5.99311e-07	4.80201e-05	1.54039e-05	8.54452e-07	2.17207e-07	1.84728e-06	4.1768e-07	1.29384e-05	2.60949e-05	7.28798e-06	1.75531e-05	2.95267e-06	6.01226e-07	7.21446e-06	9.0287e-06	3.71724e-06	3.93769e-05	6.53034e-05	5.63915e-05	2.8373e-05	1.3828e-06	1.14267e-05	7.23115e-05	4.62949e-06	9.57801e-06	9.95246e-06	1.29424e-05	8.75639e-06	3.65452e-06	4.13326e-07	4.09289e-07	6.00935e-05	8.66234e-07	1.26205e-06	1.14047e-05	1.47372e-05	2.6882e-06	1.39645e-06	6.13616e-06	3.02622e-06	4.21436e-07	2.93255e-05	1.85792e-07	1.70127e-05	8.39733e-06	3.20228e-05	0.000147003	1.69814e-05	3.73722e-06	1.18777e-06	1.04422e-05	4.19031e-06	8.815e-07	4.95739e-06	7.21367e-06	2.08577e-06	6.38321e-07	0.000153106	7.68637e-06	3.81546e-06	1.2492e-06	7.71318e-06	6.84978e-06	4.62833e-06	5.92236e-05	3.03534e-05	7.85328e-06	3.72717e-05	2.89475e-05	1.04634e-06	6.75564e-06	2.41283e-05	1.01738e-05	4.24905e-06	0.000121246	5.96692e-05	1.09049e-06	2.51208e-06	4.00939e-06	1.03544e-05	2.32077e-05	1.17194e-06	1.55007e-05	5.68361e-07	6.2177e-07	0.000128104	7.80759e-06	2.2773e-06	2.10202e-06	8.30746e-06	2.47616e-05	2.16601e-06	2.06379e-06	7.9508e-06	7.93692e-06	3.31208e-06	1.29523e-05	1.00167	6.95108e-07	6.81298e-07	5.99293e-06	1.5127e-05	3.39789e-07	1.36475e-06	7.60585e-06
61	1e-06	1.10838e-11	1.05362e-12	4.87245e-14	8.98611e-12	2.14537e-10	3.34513e-12	7.01148e-11	1.57724e-10	2.44762e-12	1.01147e-11	8.70695e-12	1.61354e-10	9.03112e-13	1.07442e-09	1.65504e-10	7.18635e-12	2.01238e-12	2.66997e-12	1.63919e-10	1.52059e-11	6.1274e-12	2.98591e-11	3.44812e-12	8.48346e-13	2.31209e-13	8.7875e-11	1.1395e-11	1.52825e-13	2.71517e-14	1.05768e-12	1.1102e-13	1.79844e-11	4.82219e-11	6.63838e-12	2.35156e-11	1.85887e-12	2.32327e-13	6.37198e-12	4.97691e-12	2.64031e-12	6.82061e-11	1.48484e-10	1.07122e-10	5.39783e-11	2.85334e-13	1.23774e-11	1.42508e-10	2.53336e-12	9.84835e-12	8.9579e-12	1.79794e-11	8.23835e-12	2.55414e-12	6.20679e-14	8.90258e-14	7.52677e-11	3.03072e-13	8.63275e-13	9.32916e-12	1.08458e-11	2.02656e-12	9.96981e-13	5.09736e-12	1.92966e-12	9.26944e-14	2.15245e-11	2.20528e-14	2.54449e-11	6.39678e-12	6.33819e-11	6.65315e-10	2.38507e-11	1.54576e-12	4.70424e-13	1.24195e-11	2.17221e-12	3.33499e-13	2.74081e-12	6.407e-12	1.43456e-12	1.09654e-13	6.94371e-10	6.92454e-12	2.47443e-12	8.45583e-13	7.10695e-12	6.04147e-12	2.54299e-12	1.16637e-10	4.8829e-11	7.88969e-12	6.92106e-11	2.13264e-11	6.16102e-13	7.28786e-12	1.73667e-11	1.07849e-11	3.07704e-12	2.78942e-10	1.68782e-07	4.80225e-13	1.02591e-12	2.31827e-12	9.5656e-12	3.30607e-11	2.6424e-13	9.43002e-08	1.80484e-13	1.0672e-13	2.93556e-10	7.11462e-12	1.06068e-12	1.56428e-12	7.96747e-12	5.42624e-11	1.18944e-12	1.2065e-12	4.08247e-12	3.36644e-12	1.82955e-12	1.15681e-11	9.99275e-07	2.78721e-13	2.83478e-13	7.25067e-12	2.41128e-11	6.92828e-14	6.5613e-13	5.79023e-08
62	0.113337	0.00308548	0.000362493	7.84384e-05	0.00269978	0.0140279	0.000705084	0.0120825	1.05113	0.00927241	0.0019499	0.00151916	0.0167204	0.000361042	0.0675915	0.0171092	0.00204495	0.00106277	0.00124398	0.0705512	0.0250301	0.00113717	0.00402999	0.000899504	0.000244622	0.000117627	1.10084	0.00306719	0.000168513	4.27778e-05	0.000362472	8.20127e-05	0.00255967	0.00521599	0.00144801	0.00348228	0.000583249	0.000118005	0.00143251	0.00183834	0.000735157	0.103497	0.0131323	0.0485535	0.00567575	0.000276653	0.00227922	0.0149619	0.000920108	0.00189214	0.00196218	0.00256043	0.00174098	0.000722562	8.13197e-05	8.01135e-05	0.0126634	0.000170612	0.000247585	0.0022852	0.00293436	0.000529659	0.00027405	0.00121693	0.000597485	8.24972e-05	0.00606463	3.64582e-05	0.00338354	0.00167258	0.00641307	1.16785	0.00347952	1.03678	0.000233872	1.00863	0.00083187	0.000173471	1.0382	0.00143252	0.000410511	0.000126397	0.193949	0.00152684	0.000745981	0.000245043	0.00152137	0.00135997	0.000919959	0.786253	0.00620989	0.00155368	0.00747074	0.057379	0.000205042	0.00133164	0.0503752	1.00962	0.0142241	1.09426	1.01776	0.000214305	0.000494711	0.000793993	0.00204211	0.00472064	0.000232602	0.00335957	0.000111635	0.000123767	0.0734838	0.00155128	0.000449385	0.000412672	0.00163949	0.0049429	0.000426753	0.000405323	0.00706564	0.428358	0.000655371	0.00259059	1.06385	0.000135651	0.000133818	1.03209	0.00299953	6.64819e-05	0.00026861	0.00153137
63	1e-06	1.06963e-07	1.35663e-12	6.13497e-14	1.18559e-11	2.77993e-10	4.31571e-12	1.03691e-09	3.75336e-07	2.09383e-09	1.30777e-11	1.12511e-11	2.09176e-10	1.16164e-12	3.34417e-09	2.19662e-10	9.24844e-12	2.58729e-12	3.44025e-12	7.74634e-10	3.05322e-09	7.90896e-12	3.86477e-11	4.44713e-12	1.09295e-12	2.9692e-13	1.44553e-10	1.70342e-11	1.9426e-13	3.41787e-14	1.3619e-12	1.41967e-13	2.32362e-11	6.24333e-11	8.57622e-12	3.04045e-11	3.97357e-12	2.98361e-13	8.23e-12	6.42185e-12	3.40622e-12	1.54287e-10	1.92354e-10	1.39722e-10	6.98959e-11	3.64196e-13	1.60073e-11	1.84737e-10	3.26521e-12	1.27202e-11	1.15628e-11	2.32297e-11	1.06442e-11	3.29472e-12	7.85898e-14	1.13418e-13	1.18013e-10	3.88802e-13	1.11222e-12	1.20434e-11	1.7544e-11	2.61477e-12	1.28475e-12	6.58151e-12	2.48777e-12	1.18112e-13	2.78289e-11	2.7746e-14	3.29197e-11	8.25347e-12	8.20779e-11	2.54171e-10	3.08968e-11	1.59901e-13	6.04192e-13	4.57546e-12	2.79846e-12	4.28154e-13	5.91276e-12	8.27565e-12	1.84997e-12	1.39069e-13	1.19579e-09	8.94456e-12	3.18753e-12	1.08936e-12	9.17428e-12	7.80467e-12	3.27773e-12	1.20928e-07	6.32537e-11	1.01949e-11	8.97306e-11	2.75409e-11	7.93549e-13	9.40692e-12	2.24202e-11	1.85553e-11	5.38458e-12	1.21353e-06	1.60662e-10	6.1743e-13	1.31621e-12	2.98631e-12	1.23488e-11	4.28062e-11	3.37471e-13	1.077e-07	2.3129e-13	1.35694e-13	1.36646e-10	9.19087e-12	1.36419e-12	2.01618e-12	1.02873e-11	7.02417e-11	1.53189e-12	1.55383e-12	1.43772e-11	8.29407e-11	2.35604e-12	1.49401e-11	1.76984e-10	3.57861e-13	3.64307e-13	1.42148e-12	3.11748e-11	8.81735e-14	1.44749e-12	1.56857e-11
64	1e-06	5.47414e-11	3.70725e-13	2.02565e-14	2.20038e-07	7.32766e-11	1.1573e-12	2.38368e-11	3.28122e-10	1.20026e-11	3.47718e-12	2.99207e-12	5.48255e-11	3.20257e-13	3.65318e-10	5.62338e-11	2.51439e-12	7.22896e-13	9.48205e-13	4.44058e-11	5.00771e-12	2.11292e-12	1.01896e-11	9.5551e-12	2.96586e-13	8.32121e-14	3.77189e-11	3.97835e-12	5.95377e-14	1.12616e-14	3.72084e-13	4.12625e-14	6.17094e-12	1.6443e-11	2.29034e-12	8.05323e-12	6.50315e-13	8.36047e-14	2.20046e-12	1.74494e-12	9.18977e-13	2.30439e-11	5.05107e-11	3.63818e-11	1.83992e-11	1.08693e-13	4.24975e-12	4.84311e-11	8.90675e-13	3.39272e-12	3.09651e-12	6.16925e-12	2.83942e-12	8.89563e-13	2.48538e-14	3.3881e-14	2.55835e-11	1.09886e-13	3.01741e-13	3.23087e-12	3.78731e-12	7.04047e-13	3.4791e-13	1.76387e-12	6.74694e-13	3.52304e-14	7.44422e-12	9.22475e-15	8.70233e-12	2.22138e-12	2.15942e-11	6.67241e-11	8.14273e-12	4.90554e-14	1.69014e-13	1.25686e-12	7.65983e-13	1.20218e-13	1.59721e-12	2.21219e-12	5.0017e-13	4.30962e-14	2.27331e-10	2.38977e-12	8.65941e-13	2.95674e-13	2.45522e-12	2.08705e-12	8.93867e-13	3.83765e-11	1.66452e-11	2.71583e-12	2.35428e-11	7.33772e-12	2.16493e-13	2.51172e-12	5.98036e-12	4.93111e-12	8.52482e-13	3.92061e-07	3.63363e-09	1.71285e-13	3.68863e-13	8.14582e-13	3.30414e-12	1.12942e-11	9.97428e-14	5.62745e-11	6.59749e-14	4.17364e-14	2.55646e-11	2.45452e-12	3.77088e-13	5.44969e-13	2.74957e-12	1.85599e-11	4.18911e-13	4.23937e-13	3.74045e-12	2.13232e-11	6.44325e-13	3.99598e-12	4.61058e-11	1.00139e-13	1.01481e-13	3.88071e-13	8.26424e-12	2.65792e-14	2.32777e-13	1.17574e-12
65	0.00816017	8.16944e-05	1.866e-06	4.01015e-07	0.000980182	7.0756e-05	3.62282e-06	5.70742e-05	0.000235265	2.40009e-05	9.89726e-06	7.79112e-06	8.18677e-05	1.86043e-06	0.000229458	8.37515e-05	1.03929e-05	5.34799e-06	6.20411e-06	6.84907e-05	1.24404e-05	5.83597e-06	2.04703e-05	1.00277	1.2599e-06	6.05033e-07	5.03279e-05	1.55659e-05	8.62136e-07	2.19129e-07	1.86584e-06	4.21533e-07	1.30971e-05	2.6447e-05	7.36788e-06	1.77659e-05	2.9828e-06	6.06967e-07	7.29302e-06	9.11902e-06	3.75599e-06	3.9895e-05	6.62596e-05	5.71607e-05	2.876e-05	1.39534e-06	1.15573e-05	7.33124e-05	4.67571e-06	9.68605e-06	1.00613e-05	1.31011e-05	8.8531e-06	3.6925e-06	4.17011e-07	4.13012e-07	6.08084e-05	8.74422e-07	1.27512e-06	1.1527e-05	1.4892e-05	2.71654e-06	1.41102e-06	6.20211e-06	3.05717e-06	4.25271e-07	2.96334e-05	1.87433e-07	1.72261e-05	8.48606e-06	3.24662e-05	6.53342e-05	1.71902e-05	6.95157e-07	1.19914e-06	7.93322e-06	4.23182e-06	8.899e-07	6.6868e-06	7.29232e-06	2.10738e-06	6.44051e-07	0.000171176	7.77044e-06	3.85458e-06	1.26211e-06	7.79796e-06	6.92434e-06	4.67457e-06	6.00303e-05	3.07438e-05	7.94135e-06	3.77753e-05	2.92513e-05	1.0569e-06	6.83279e-06	2.43805e-05	1.59421e-05	3.63709e-06	7.92147e-05	0.00543128	1.10106e-06	2.53623e-06	4.04976e-06	1.04683e-05	2.34945e-05	1.18263e-06	8.37445e-05	5.73684e-07	6.27351e-07	6.07682e-05	7.8932e-06	2.29954e-06	2.12413e-06	8.39962e-06	2.51192e-05	2.18764e-06	2.0846e-06	1.10946e-05	3.65848e-05	3.3452e-06	1.30937e-05	5.96138e-05	7.01772e-07	6.87859e-07	1.92139e-06	1.53209e-05	3.42867e-07	1.37813e-06	7.61982e-06
66	0.00806944	7.98942e-05	1.8248e-06	3.92145e-07	0.000980008	6.92032e-05	3.54288e-06	5.58132e-05	0.000230112	2.34715e-05	9.67886e-06	7.61931e-06	8.00636e-05	1.81934e-06	0.000224443	8.19059e-05	1.01634e-05	5.22972e-06	6.06688e-06	6.69829e-05	1.2166e-05	5.70725e-06	2.00192e-05	0.0002293	1.23209e-06	5.91664e-07	4.922e-05	1.52221e-05	8.43071e-07	2.14283e-07	1.82464e-06	4.12215e-07	1.28084e-05	2.58647e-05	7.20525e-06	1.73742e-05	2.91692e-06	5.93555e-07	7.13203e-06	8.91735e-06	3.67305e-06	3.90152e-05	6.48022e-05	5.59009e-05	2.81268e-05	1.36447e-06	1.13023e-05	7.16967e-05	4.5724e-06	9.47237e-06	9.83925e-06	1.28124e-05	8.6577e-06	3.61096e-06	4.07789e-07	4.03882e-07	5.94648e-05	8.55096e-07	1.24697e-06	1.12724e-05	1.45631e-05	2.65656e-06	1.37987e-06	6.06519e-06	2.98965e-06	4.15871e-07	2.89781e-05	1.83288e-07	1.68465e-05	8.29865e-06	3.17516e-05	6.39003e-05	1.68112e-05	6.79782e-07	1.17265e-06	7.75774e-06	4.13831e-06	8.70234e-07	6.53909e-06	7.13135e-06	2.06085e-06	6.29807e-07	0.000167425	7.59892e-06	3.76949e-06	1.23424e-06	7.6259e-06	6.77149e-06	4.57128e-06	5.87087e-05	3.00658e-05	7.76613e-06	3.69434e-05	2.86044e-05	1.03357e-06	6.68209e-06	2.38413e-05	1.559e-05	3.55679e-06	7.74691e-05	0.995337	1.07673e-06	2.48019e-06	3.9603e-06	1.02373e-05	2.29763e-05	1.15647e-06	8.18991e-05	5.61004e-07	6.13473e-07	5.94255e-05	7.71898e-06	2.24873e-06	2.07724e-06	8.21429e-06	2.45667e-05	2.13932e-06	2.03856e-06	1.08497e-05	3.5779e-05	3.2713e-06	1.28046e-05	5.83017e-05	6.8627e-07	6.72661e-07	1.87895e-06	1.49834e-05	3.35288e-07	1.34769e-06	7.45128e-06
67	0.00813781	8.1249e-05	1.85581e-06	3.9882e-07	1.00021	7.03718e-05	3.60304e-06	5.67622e-05	0.00023399	2.38699e-05	9.84322e-06	7.74861e-06	8.14213e-05	1.85026e-06	0.000228218	8.32948e-05	1.03361e-05	5.31872e-06	6.17015e-06	6.81176e-05	1.23725e-05	5.80412e-06	2.03587e-05	0.000229383	1.25302e-06	6.01724e-07	5.00538e-05	1.54808e-05	8.57418e-07	2.1793e-07	1.85565e-06	4.19227e-07	1.30257e-05	2.63029e-05	7.32764e-06	1.7669e-05	2.9665e-06	6.03648e-07	7.25318e-06	9.06911e-06	3.73547e-06	3.96773e-05	6.5899e-05	5.6849e-05	2.86033e-05	1.3877e-06	1.14942e-05	7.29126e-05	4.65015e-06	9.63318e-06	1.00063e-05	1.30297e-05	8.80475e-06	3.67232e-06	4.14729e-07	4.10753e-07	6.0476e-05	8.6964e-07	1.26815e-06	1.1464e-05	1.48106e-05	2.7017e-06	1.40331e-06	6.16823e-06	3.04046e-06	4.22945e-07	2.94713e-05	1.86407e-07	1.71321e-05	8.43969e-06	3.22894e-05	6.49795e-05	1.70964e-05	6.91352e-07	1.19259e-06	7.8898e-06	4.20868e-06	8.85033e-07	6.65025e-06	7.25249e-06	2.09587e-06	6.40526e-07	0.000170248	7.728e-06	3.83352e-06	1.25521e-06	7.75539e-06	6.88652e-06	4.64901e-06	5.97033e-05	3.0576e-05	7.89799e-06	3.75694e-05	2.90912e-05	1.05113e-06	6.7955e-06	2.42471e-05	1.58549e-05	3.61722e-06	7.91734e-05	0.00543091	1.09504e-06	2.52237e-06	4.02762e-06	1.04111e-05	2.33663e-05	1.17616e-06	8.32879e-05	5.70546e-07	6.23917e-07	6.04359e-05	7.85009e-06	2.28696e-06	2.11252e-06	8.35376e-06	2.49825e-05	2.17568e-06	2.07321e-06	1.1034e-05	3.63854e-05	3.32692e-06	1.30222e-05	5.92892e-05	6.97936e-07	6.84098e-07	1.91089e-06	1.52374e-05	3.40992e-07	1.3706e-06	7.57812e-06
68	0.00815467	8.12608e-05	1.86073e-06	4.00359e-07	1.33275e-05	7.00831e-05	3.60907e-06	5.68121e-05	0.000232732	2.38768e-05	9.85713e-06	7.75753e-06	8.13257e-05	1.85557e-06	0.00022627	8.31959e-05	1.03599e-05	5.33558e-06	6.18882e-06	6.80507e-05	1.23879e-05	5.81183e-06	2.03633e-05	4.60027e-06	1.25597e-06	6.0362e-07	4.9963e-05	1.55147e-05	8.60598e-07	2.1877e-07	1.86056e-06	4.20683e-07	1.30315e-05	2.62826e-05	7.34041e-06	1.76794e-05	2.9739e-06	6.05549e-07	7.26635e-06	9.09371e-06	3.74398e-06	3.96606e-05	6.57733e-05	5.67976e-05	2.85771e-05	1.39275e-06	1.15089e-05	7.28324e-05	4.66279e-06	9.64689e-06	1.0024e-05	1.30355e-05	8.81938e-06	3.68081e-06	4.16298e-07	4.12232e-07	6.05267e-05	8.72463e-07	1.27113e-06	1.14868e-05	1.48432e-05	2.70754e-06	1.40649e-06	6.1803e-06	3.04798e-06	4.24466e-07	2.95368e-05	1.87128e-07	1.71351e-05	8.45775e-06	3.22532e-05	6.47204e-05	1.71036e-05	6.93907e-07	1.19631e-06	7.91331e-06	4.22045e-06	8.87839e-07	6.66573e-06	7.26556e-06	2.10077e-06	6.42913e-07	0.000169148	7.74166e-06	3.84289e-06	1.25818e-06	7.76865e-06	6.89905e-06	4.66163e-06	5.977e-05	3.0572e-05	7.90976e-06	3.75399e-05	2.9156e-05	1.05387e-06	6.80422e-06	2.43021e-05	1.58827e-05	3.62577e-06	1.00308	6.48221e-05	1.09833e-06	2.53015e-06	4.03823e-06	1.04289e-05	2.33747e-05	1.18037e-06	8.32967e-05	5.72448e-07	6.26244e-07	6.04866e-05	7.86376e-06	2.29368e-06	2.11714e-06	8.3672e-06	2.49397e-05	2.18158e-06	2.07863e-06	1.10508e-05	3.63686e-05	3.33591e-06	1.30454e-05	5.91702e-05	7.00105e-07	6.86198e-07	1.91591e-06	1.52358e-05	3.42232e-07	1.37457e-06	7.60097e-06
69	0.0316011	1.00721	2.7974e-05	6.03006e-06	0.000199441	0.00105922	5.4272e-05	0.00897125	0.94766	0.0319322	0.000148632	0.0001167	0.00123583	2.78915e-05	0.00859783	0.00128669	0.000156134	8.06201e-05	9.37012e-05	0.00449759	0.03096	8.74158e-05	0.000307	6.92021e-05	1.88789e-05	9.07754e-06	0.000758007	0.000272619	1.29593e-05	3.29353e-06	2.79715e-05	6.32802e-06	0.000196132	0.00039641	0.000110624	0.000266269	6.86191e-05	9.10657e-06	0.000109494	0.000137808	5.63771e-05	0.000961702	0.000993167	0.000867431	0.000431095	2.10387e-05	0.000173577	0.00110657	7.03025e-05	0.000145183	0.000150809	0.000196192	0.000132929	5.54232e-05	6.26583e-06	6.19684e-06	0.0011037	1.31312e-05	1.91069e-05	0.000173442	0.000273938	4.07353e-05	2.11426e-05	9.31087e-05	4.58831e-05	6.38082e-06	0.000449001	2.81504e-06	0.000258197	0.000127544	0.000486633	0.000982098	0.000258339	1.04609e-05	1.80029e-05	0.000119902	6.36192e-05	1.33595e-05	0.000100583	0.000109485	3.16009e-05	9.68941e-06	0.0033872	0.000116665	5.77225e-05	1.89121e-05	0.000116884	0.000103961	7.02861e-05	0.761446	0.00046345	0.000119086	0.000566682	0.000444892	1.58392e-05	0.000102344	0.00037069	0.00024035	8.92228e-05	0.000263094	0.000982285	1.65207e-05	3.80724e-05	6.08328e-05	0.000156909	0.000353939	1.77988e-05	0.99621	8.61085e-06	9.4499e-06	0.00131349	0.000118511	3.45304e-05	3.18265e-05	0.000125902	0.000376098	3.28288e-05	3.1256e-05	0.000174722	0.000570577	5.02455e-05	0.000196881	0.000899199	1.05149e-05	1.03207e-05	2.88047e-05	0.000229422	5.14422e-06	3.23364e-05	0.000342736
70	1e-06	1.1947e-09	1.2471e-11	5.25496e-13	1.11682e-10	2.54428e-09	3.97188e-11	1.71184e-07	8.54119e-08	6.55664e-09	1.22145e-10	1.04434e-10	1.96573e-09	1.06477e-11	3.49081e-06	2.0306e-09	8.41681e-11	2.3902e-11	3.21725e-11	3.28992e-09	8.77577e-09	7.2839e-11	3.6161e-10	4.10982e-11	1.0031e-11	2.71286e-12	1.3651e-09	1.2579e-05	1.72168e-12	2.91163e-13	1.25203e-11	1.27911e-12	2.14021e-10	5.80778e-10	7.99136e-11	2.82499e-10	1.05121e-07	2.72616e-12	7.66324e-11	6.02117e-11	3.15953e-11	9.21854e-07	1.79092e-09	1.3056e-09	6.50262e-10	3.29885e-12	1.49623e-10	1.73585e-09	3.03204e-11	1.17878e-10	1.07041e-10	2.13963e-10	9.9218e-11	3.05511e-11	6.87172e-13	1.00545e-12	3.39085e-07	3.53951e-12	1.02085e-11	1.11892e-10	3.23855e-07	2.42373e-11	1.17975e-11	6.12176e-11	2.30253e-11	1.04761e-12	2.63042e-10	2.37335e-13	3.05893e-10	7.651e-11	7.63756e-10	2.3197e-09	2.9013e-10	1.40006e-12	5.51929e-12	4.28158e-11	2.59405e-11	3.90612e-12	5.47534e-11	7.70687e-11	1.71204e-11	1.21336e-12	9.17947e-09	8.33128e-11	2.92995e-11	9.99773e-12	8.49275e-11	7.26819e-11	3.04407e-11	1.48728e-07	5.93173e-10	9.49274e-11	8.41713e-10	2.59567e-10	7.30221e-12	8.66637e-11	2.11189e-10	1.7454e-10	3.5349e-11	3.82054e-07	1.4909e-09	5.66256e-12	1.18961e-11	2.75408e-11	1.1435e-10	4.00861e-10	3.04761e-12	3.44288e-09	2.09782e-12	1.2114e-12	7.93162e-07	8.5628e-11	1.25175e-11	1.85258e-11	9.52689e-11	6.44365e-10	1.41277e-11	1.42992e-11	1.31976e-10	7.65745e-10	2.17071e-11	1.38893e-10	1.67058e-09	3.25834e-12	3.33688e-12	1.30711e-11	2.86754e-10	7.79156e-13	6.5029e-08	7.25475e-11
71	0.0419721	0.00040306	4.93648e-05	1.06513e-05	0.000353804	0.00186577	9.57572e-05	0.000747509	0.00565123	0.000639696	0.000262529	0.000205902	0.00218765	4.92178e-05	1.00791	0.00223805	0.000275831	0.000142601	0.000165881	0.00181143	0.000329338	0.000154234	0.000541968	0.00012214	3.331e-05	1.60222e-05	0.00133884	1.08841	2.28888e-05	5.81645e-06	4.93605e-05	1.11709e-05	0.000346013	0.000699505	0.000195377	0.000469927	6.69725e-05	1.60735e-05	0.000193379	0.000244058	9.95484e-05	1.0083	0.00175239	0.00152666	0.000760674	3.721e-05	0.0003066	0.00195876	0.00012422	0.000256228	0.000266156	0.000346119	0.000234779	9.78628e-05	1.10644e-05	1.09364e-05	0.00603777	2.31858e-05	3.37122e-05	0.00030661	0.00214131	7.18994e-05	3.7304e-05	0.000164431	8.10118e-05	1.12611e-05	0.000796232	4.96971e-06	0.000455648	0.000225355	0.000858689	0.00172288	0.000456386	1.84848e-05	3.17856e-05	0.000212203	0.000112402	2.35863e-05	0.000177714	0.000193362	5.57749e-05	1.712e-05	0.0045333	0.000206047	0.000101819	3.33684e-05	0.000206285	0.000183598	0.000124192	0.00167367	0.000819923	0.000210211	0.00100023	0.000785946	2.79465e-05	0.000180576	0.000654833	0.000424722	9.62445e-05	1.01657	0.00172536	2.91618e-05	6.72184e-05	0.000107445	0.000276921	0.00062601	3.14546e-05	0.000413174	1.52005e-05	1.67057e-05	1.02331	0.000209307	6.0975e-05	5.61552e-05	0.0002222	0.000663032	5.79565e-05	5.51609e-05	0.000294258	0.0009687	8.87409e-05	0.000347946	0.00158614	1.85487e-05	1.82172e-05	5.08298e-05	0.000404671	9.07841e-06	3.30031e-05	0.000203756
72	0.0574999	0.00620922	9.27102e-05	2.00295e-05	0.000669815	0.00351207	0.000179854	1.01293	0.0681036	0.0329443	0.000493951	0.000386802	0.00413615	9.24245e-05	0.0165933	0.00425413	0.000518939	0.000268733	0.000313009	0.00688302	0.0314056	0.000289721	0.00101942	0.000229471	6.255e-05	3.00975e-05	0.00252716	1.05063	4.30356e-05	1.09345e-05	9.27025e-05	2.09882e-05	0.000650168	0.00131595	0.000367491	0.000883399	1.00124	3.01938e-05	0.000363707	0.00046084	0.000187151	0.00238057	0.00329858	0.00289026	0.00143114	7.01082e-05	0.000576943	0.00370302	0.000233739	0.000481496	0.00050006	0.000650367	0.000441636	0.000183977	2.07966e-05	2.0539e-05	1.37761	4.35782e-05	6.33055e-05	0.000577475	1.02329	0.000135091	7.00521e-05	0.000309221	0.000152275	2.11491e-05	0.00150662	9.3378e-06	0.00085678	0.000424085	0.0016157	0.00324705	0.000859505	3.4782e-05	5.9736e-05	0.000400554	0.000211472	4.43241e-05	0.000334547	0.000363681	0.000104785	3.2208e-05	0.00937103	0.00038755	0.000191108	6.26595e-05	0.00038759	0.000345312	0.000233689	0.244926	0.00154794	0.000395115	0.0018825	0.00148883	5.24748e-05	0.000339206	0.00124019	0.00080079	0.000215435	0.000777429	0.00325049	5.47875e-05	0.000126326	0.000202061	0.000520301	0.00118103	5.91937e-05	0.0175886	2.8559e-05	3.14533e-05	0.00349877	0.000393694	0.000114622	0.000105455	0.000417513	0.0012469	0.000108914	0.000103609	0.000561705	0.0018448	0.00016687	0.000655105	0.00299573	3.48135e-05	3.42233e-05	9.54635e-05	0.00076055	1.70489e-05	1.00043	0.000613457
73	0.00796132	0.000463179	1.80095e-06	3.82735e-07	1.27374e-05	7.24433e-05	3.52751e-06	0.000225146	0.000312727	3.40894e-05	9.664e-06	7.62401e-06	8.18565e-05	1.79201e-06	0.000129074	0.000767713	1.00603e-05	5.13781e-06	5.9691e-06	0.000840985	2.95464e-05	5.70015e-06	2.02055e-05	4.4751e-06	1.2192e-06	5.81284e-07	5.06314e-05	1.50829e-05	8.24015e-07	2.0915e-07	1.80089e-06	4.03769e-07	1.28935e-05	2.63326e-05	7.17221e-06	1.74736e-05	2.8834e-06	5.83152e-07	7.09439e-06	8.7994e-06	3.63798e-06	0.000597541	6.66452e-05	5.70132e-05	2.8675e-05	1.33464e-06	1.12989e-05	7.32533e-05	4.5108e-06	9.45445e-06	9.78991e-06	1.28972e-05	8.62435e-06	3.57547e-06	3.98283e-07	3.95116e-07	0.00023762	8.39336e-07	1.23404e-06	1.11946e-05	1.44287e-05	2.63395e-06	1.36656e-06	6.0253e-06	2.95574e-06	4.06869e-07	2.87291e-05	1.78873e-07	1.70067e-05	8.22969e-06	3.24275e-05	6.68272e-05	1.69412e-05	6.64445e-07	1.15236e-06	7.63602e-06	4.07957e-06	8.54802e-07	6.47368e-06	7.0946e-06	2.03997e-06	6.15431e-07	0.000179609	7.56212e-06	3.72726e-06	1.22123e-06	7.59157e-06	6.73559e-06	4.50995e-06	0.000462454	3.04486e-05	7.74799e-06	3.76355e-05	2.83579e-05	1.02054e-06	6.67652e-06	2.36255e-05	1.55217e-05	0.0131222	0.000416351	6.53872e-05	1.05928e-06	2.43777e-06	3.90951e-06	1.01919e-05	2.31638e-05	1.13169e-06	0.961473	5.5022e-07	5.9952e-07	0.000392804	7.6836e-06	2.21367e-06	2.05873e-06	8.18487e-06	2.51983e-05	2.11038e-06	2.01265e-06	1.08213e-05	3.63402e-05	3.22727e-06	1.27398e-05	6.00796e-05	6.74454e-07	6.61363e-07	1.85486e-06	1.51557e-05	3.279e-07	1.32723e-06	4.70207e-06
74	0.00845181	0.000473094	2.02626e-06	4.31229e-07	1.43279e-05	8.09346e-05	3.96453e-06	0.000228544	0.000338401	3.69854e-05	1.08581e-05	8.5634e-06	9.17216e-05	2.01669e-06	0.000141074	0.000783496	1.13153e-05	5.78445e-06	6.71942e-06	0.000849698	3.10467e-05	6.40392e-06	2.26723e-05	5.03218e-06	1.37128e-06	6.54378e-07	5.66891e-05	1.69625e-05	9.28253e-07	2.35647e-07	2.02618e-06	4.54714e-07	1.44716e-05	2.95164e-05	8.06139e-06	1.96148e-05	3.24358e-06	6.5648e-07	7.97458e-06	9.90208e-06	4.09145e-06	0.00060529	7.4614e-05	6.39022e-05	3.21369e-05	1.50343e-06	1.26932e-05	8.20878e-05	5.07569e-06	1.06227e-05	1.10038e-05	1.44758e-05	9.69271e-06	4.02128e-06	4.48702e-07	4.45032e-07	0.000241241	9.45001e-07	1.38795e-06	1.25865e-05	1.62269e-05	2.96184e-06	1.53687e-06	6.77391e-06	3.3249e-06	4.58266e-07	3.23126e-05	2.01535e-07	1.90822e-05	9.25436e-06	3.63347e-05	7.46686e-05	1.90137e-05	7.4851e-07	1.29724e-06	8.59548e-06	4.59085e-06	9.62324e-07	7.2813e-06	7.9747e-06	2.29436e-06	6.93314e-07	0.00020012	8.49991e-06	4.1925e-06	1.37358e-06	8.53236e-06	7.57129e-06	5.0747e-06	0.000469695	3.41556e-05	8.70596e-06	4.21836e-05	3.18951e-05	1.14814e-06	7.50047e-06	2.65738e-05	1.74468e-05	0.987103	0.000431281	7.32394e-05	1.19229e-06	2.74419e-06	4.39866e-06	1.14548e-05	2.59976e-05	1.2747e-06	0.0417948	6.19543e-07	6.75401e-07	0.000402747	8.63618e-06	2.49147e-06	2.31508e-06	9.19815e-06	2.82192e-05	2.37458e-06	2.26436e-06	1.216e-05	4.07462e-05	3.63134e-06	1.43205e-05	6.72539e-05	7.59213e-07	7.44459e-07	2.08685e-06	1.70009e-05	3.69339e-07	1.49369e-06	5.20497e-06
75	0.0789511	1.02656	0.000175108	3.7872e-05	0.00127955	0.00666944	0.000339914	1.01994	0.0769814	0.0482682	0.000935887	0.000731386	0.00789864	0.000174522	0.0601768	1.03003	0.000982868	0.000509867	0.000594966	1.00356	0.0544073	0.000547734	0.00193168	0.000433753	0.000118139	5.68488e-05	0.00481291	0.00147384	8.13635e-05	2.06669e-05	0.000175095	3.96455e-05	0.00123016	0.00249498	0.000695891	0.00167235	0.000281476	5.70309e-05	0.00068864	0.000877025	0.000354056	1.0139	0.00626175	0.00550695	0.00271674	0.000132936	0.00109338	0.00707028	0.000442629	0.000910731	0.00094545	0.00123053	0.000836418	0.000348032	3.92987e-05	3.87721e-05	1.02925	8.23699e-05	0.000119567	0.00109542	0.00141037	0.000255375	0.00013232	0.000585331	0.000287976	3.99245e-05	0.00287645	1.76359e-05	0.00162277	0.000803471	0.00306446	0.00615817	0.00163119	6.58317e-05	0.000112905	0.000761524	0.000400367	8.37655e-05	0.000633959	0.000688606	0.000198038	6.09438e-05	0.0164165	0.000733846	0.000360702	0.000118344	0.000732881	0.000653794	0.000442542	0.774581	0.00294877	0.000747553	0.00357091	0.00283924	9.90861e-05	0.00064132	0.00236444	0.00152047	0.0134583	1.06229	0.00671844	0.000103512	0.000238778	0.000382365	0.000983788	0.00224717	0.000112058	0.0254378	5.39503e-05	5.95783e-05	1.10294	0.000745514	0.000216742	0.000199207	0.000789547	0.00236335	0.000205885	0.00019573	0.00104881	0.00345733	0.000315719	0.00124222	0.00570483	6.56803e-05	6.46517e-05	0.000180313	0.00143966	3.21809e-05	0.000129814	0.00877219
76	0.0163181	8.73674e-05	7.48334e-06	1.60603e-06	5.29844e-05	0.000287588	1.4554e-05	0.000332778	0.897312	0.00287908	3.98175e-05	3.1332e-05	0.000331732	7.45785e-06	0.000794038	0.000390296	4.17383e-05	2.14668e-05	2.49273e-05	0.000339001	0.0052227	2.34603e-05	8.25165e-05	1.85295e-05	5.05487e-06	2.42466e-06	0.000204021	6.25322e-05	3.45339e-06	8.77461e-07	7.48279e-06	1.68852e-06	5.27404e-05	0.000106806	2.96192e-05	7.15432e-05	1.19731e-05	2.43242e-06	2.93131e-05	3.66695e-05	1.5081e-05	0.00018678	0.000270454	0.000233083	0.000173405	5.59605e-06	4.65103e-05	0.00029701	1.87685e-05	3.89397e-05	4.04199e-05	5.27564e-05	3.5596e-05	1.48251e-05	1.66989e-06	1.65365e-06	0.000261354	3.50465e-06	5.11603e-06	4.63496e-05	5.98259e-05	1.09063e-05	5.66214e-06	2.49205e-05	1.22698e-05	1.70276e-06	0.00011939	7.5032e-07	6.94392e-05	3.40983e-05	0.00013121	0.000265494	6.93191e-05	2.78563e-06	4.8069e-06	3.18807e-05	1.69831e-05	3.56685e-06	2.68638e-05	2.93113e-05	8.45761e-06	2.58048e-06	0.000703004	3.12354e-05	1.54589e-05	5.06363e-06	3.14326e-05	2.79187e-05	1.88001e-05	0.00312499	0.000124247	3.1927e-05	0.000152614	0.000117849	4.23853e-06	2.74697e-05	9.82079e-05	6.41602e-05	1.47014e-05	0.0189015	0.0124713	4.41387e-06	1.01669e-05	1.62531e-05	4.20604e-05	9.48311e-05	4.7404e-06	0.980843	2.29851e-06	2.51468e-06	0.000252153	3.17309e-05	9.22208e-06	8.52498e-06	3.37552e-05	0.0001016	8.77535e-06	8.36111e-06	4.4622e-05	0.000147696	1.34232e-05	5.26588e-05	0.000241776	2.81125e-06	2.75708e-06	7.70585e-06	6.17648e-05	1.37268e-06	5.52663e-06	2.91859e-05
77	1e-06	1.24985e-11	8.38936e-13	3.95525e-14	7.13335e-12	1.75893e-10	2.67326e-12	2.76594e-06	3.11229e-06	5.91298e-07	8.08238e-12	6.96443e-12	1.30102e-10	7.188e-13	3.94384e-10	1.56088e-10	5.72403e-12	1.60135e-12	2.121e-12	1.25876e-10	1.10607e-09	4.90183e-12	2.39329e-11	2.74622e-12	6.767e-13	1.84302e-13	9.0043e-11	9.07598e-12	1.22811e-13	2.20426e-14	8.42187e-13	8.87774e-14	1.44456e-11	3.89004e-11	5.29523e-12	1.8846e-11	1.48049e-12	1.85192e-13	5.07913e-12	3.95363e-12	2.10306e-12	6.37824e-11	1.93031e-06	2.05361e-06	1.16996e-06	2.28414e-13	9.89568e-12	1.14892e-10	2.01459e-12	7.87029e-12	7.14441e-12	1.44412e-11	6.56986e-12	2.03426e-12	5.00805e-14	7.13715e-14	6.35034e-11	2.41647e-13	6.88627e-13	7.43522e-12	7.12173e-10	1.61463e-12	7.95449e-13	4.06162e-12	1.53651e-12	7.43004e-14	1.70831e-11	1.79168e-14	8.40194e-07	5.09482e-12	5.11734e-11	1.60119e-10	1.91639e-11	1.01311e-13	3.74813e-13	2.81747e-12	1.72738e-12	2.6584e-13	3.64968e-12	5.10787e-12	1.14259e-12	8.83218e-14	5.57064e-10	5.52009e-12	1.96946e-12	6.74451e-13	6.29661e-07	6.77594e-07	6.10268e-07	1.37275e-09	3.92882e-11	6.29873e-12	5.58053e-11	1.68377e-11	4.91268e-13	5.82778e-12	1.37104e-11	1.14076e-11	1.95966e-12	1.94498e-07	4.35472e-07	3.82514e-13	8.18025e-13	1.84583e-12	7.63166e-12	2.65638e-11	2.11371e-13	3.61044e-09	1.44056e-13	8.57606e-14	6.09533e-11	5.67284e-12	8.44637e-13	1.24772e-12	6.36017e-12	4.41692e-11	9.47104e-13	9.60537e-13	8.67002e-12	5.03404e-11	1.45676e-12	1.01588e-09	1.10148e-10	2.2207e-13	2.25871e-13	8.78954e-13	1.94563e-11	5.56018e-14	5.22629e-13	1.65689e-12
78	1e-06	2.27305e-13	2.79718e-14	6.01442e-15	1.96221e-13	1.05275e-12	5.42531e-14	8.50076e-13	3.1818e-12	6.69352e-14	1.4804e-13	1.16604e-13	1.21855e-12	2.78956e-14	1.48559e-12	1.24656e-12	1.5561e-13	8.00673e-14	9.28055e-14	1.02215e-12	4.96422e-13	8.73617e-14	3.05877e-13	6.91412e-14	1.88821e-14	9.0729e-15	7.49275e-13	2.33022e-13	1.29293e-14	3.28701e-15	2.79692e-14	6.32261e-15	1.95862e-13	3.94804e-13	1.10259e-13	2.65646e-13	4.46863e-14	9.10188e-15	1.09151e-13	1.36329e-13	5.62519e-14	5.94147e-13	9.87772e-13	8.51187e-13	4.97163e-13	2.09014e-14	1.72837e-13	1.09134e-12	7.00236e-14	1.44979e-13	1.50658e-13	1.95922e-13	1.3247e-13	5.53035e-14	6.25536e-15	6.19699e-15	9.05636e-13	1.31101e-14	1.911e-14	1.72425e-13	1.27241e-12	4.0692e-14	2.11448e-14	9.28426e-14	4.57989e-14	6.38087e-15	4.42338e-13	2.81233e-15	2.44921e-13	1.27011e-13	4.84454e-13	9.72205e-13	2.56757e-13	1.04212e-14	1.79773e-14	1.18652e-13	6.33853e-14	1.33422e-14	1.00086e-13	1.09138e-13	3.15745e-14	9.6562e-15	2.53639e-12	1.16288e-13	5.77869e-14	1.89154e-14	1.16759e-13	1.03634e-13	7.00057e-14	9.43359e-13	4.58401e-13	1.18854e-13	5.6373e-13	4.36638e-13	1.58441e-14	1.02278e-13	3.63983e-13	2.38302e-13	5.44977e-14	1.17908e-12	1.0251e-12	1.65076e-14	3.80229e-14	6.06632e-14	1.5674e-13	3.50601e-13	1.77252e-14	2.33003e-13	8.60359e-15	9.40168e-15	9.05037e-13	1.1812e-13	3.44633e-14	3.1828e-14	1.25752e-13	3.74741e-13	3.27842e-14	3.12453e-14	1.65976e-13	5.46187e-13	5.01152e-14	1.95908e-13	8.87272e-13	1.05279e-14	1.03137e-14	2.88011e-14	2.28977e-13	5.14482e-15	2.06584e-14	6.23022e-14
79	1e-06	2.27305e-13	2.79718e-14	6.01442e-15	1.96221e-13	1.05275e-12	5.42531e-14	8.50076e-13	3.1818e-12	6.69352e-14	1.4804e-13	1.16604e-13	1.21855e-12	2.78956e-14	1.48559e-12	1.24656e-12	1.5561e-13	8.00673e-14	9.28055e-14	1.02215e-12	4.96422e-13	8.73617e-14	3.05877e-13	6.91412e-14	1.88821e-14	9.0729e-15	7.49275e-13	2.33022e-13	1.29293e-14	3.28701e-15	2.79692e-14	6.32261e-15	1.95862e-13	3.94804e-13	1.10259e-13	2.65646e-13	4.46863e-14	9.10188e-15	1.09151e-13	1.36329e-13	5.62519e-14	5.94147e-13	9.87772e-13	8.51187e-13	4.97163e-13	2.09014e-14	1.72837e-13	1.09134e-12	7.00236e-14	1.44979e-13	1.50658e-13	1.95922e-13	1.3247e-13	5.53035e-14	6.25536e-15	6.19699e-15	9.05636e-13	1.31101e-14	1.911e-14	1.72425e-13	1.27241e-12	4.0692e-14	2.11448e-14	9.28426e-14	4.57989e-14	6.38087e-15	4.42338e-13	2.81233e-15	2.44921e-13	1.27011e-13	4.84454e-13	9.72205e-13	2.56757e-13	1.04212e-14	1.79773e-14	1.18652e-13	6.33853e-14	1.33422e-14	1.00086e-13	1.09138e-13	3.15745e-14	9.6562e-15	2.53639e-12	1.16288e-13	5.77869e-14	1.89154e-14	1.16759e-13	1.03634e-13	7.00057e-14	9.43359e-13	4.58401e-13	1.18854e-13	5.6373e-13	4.36638e-13	1.58441e-14	1.02278e-13	3.63983e-13	2.38302e-13	5.44977e-14	1.17908e-12	1.0251e-12	1.65076e-14	3.80229e-14	6.06632e-14	1.5674e-13	3.50601e-13	1.77252e-14	2.33003e-13	8.60359e-15	9.40168e-15	9.05037e-13	1.1812e-13	3.44633e-14	3.1828e-14	1.25752e-13	3.74741e-13	3.27842e-14	3.12453e-14	1.65976e-13	5.46187e-13	5.01152e-14	1.95908e-13	8.87272e-13	1.05279e-14	1.03137e-14	2.88011e-14	2.28977e-13	5.14482e-15	2.06584e-14	6.23022e-14
